Tiempo,EMG_mV_raw,EMG_mV_filtrado
0.0,-0.012775644202180378,0.012024140341068624
0.001,0.009581733151635281,0.012004617693982535
0.002,0.01596955525272547,0.011945632215918696
0.003,0.02235737735381566,0.011696891830834331
0.004,0.03193911050545094,0.011355210239294204
0.005,0.038326932606541124,0.010971432527778682
0.006,0.03193911050545094,0.010543481326008117
0.007,0.019163466303270562,0.010110717398350988
0.008,0.009581733151635281,0.009662283376079004
0.009,-0.009581733151635281,0.009180651914631148
0.01,-0.019163466303270562,0.008684863635974828
0.011,-0.03193911050545094,0.008208058733880889
0.012,-0.05110257680872151,0.007732104953490931
0.013,-0.05110257680872151,0.007258392025944534
0.014,-0.04152084365708622,0.006782528111415768
0.015,-0.04471475470763132,0.0062804125427841665
0.016,-0.028745199454905845,0.005773964257926433
0.017,-0.02235737735381566,0.0052638556316772275
0.018,0.0,0.004760594710951842
0.019,0.0,0.004303580954474805
0.02,0.0031939110505450944,0.003871048308875539
0.021,0.009581733151635281,0.003441534525952683
0.022,0.012775644202180378,0.003025118200838525
0.023,0.0031939110505450944,0.0026346171211271297
0.024,0.0,0.002255163933338914
0.025,-0.025551288404360755,0.0018960560078013652
0.026,-0.038326932606541124,0.0015432847226263553
0.027,-0.04152084365708622,0.001145228745324631
0.028,-0.047908665758176414,0.0007347046659086532
0.029,-0.05429648785926659,0.00034770936270233505
0.03,-0.05110257680872151,-2.9705245075276507e-05
0.031,-0.04152084365708622,-0.0004176954211799985
0.032,-0.03193911050545094,-0.0007868355299098352
0.033,-0.025551288404360755,-0.001155307282955871
0.034,-0.012775644202180378,-0.0014909091049110832
0.035,0.0,-0.0016952915435811523
0.036,0.02235737735381566,-0.0018311425337574417
0.037,0.025551288404360755,-0.0019337708185951715
0.038,0.035133021555996034,-0.0019996988015202792
0.039,0.038326932606541124,-0.0020494451130010126
0.04,0.02235737735381566,-0.0020801250165215284
0.041,0.009581733151635281,-0.0020792005112078914
0.042,-0.0031939110505450944,-0.00206141078712229
0.043,-0.028745199454905845,-0.0020586571210494827
0.044,-0.035133021555996034,-0.002052524954545785
0.045,-0.04471475470763132,-0.0020357795526037914
0.046,-0.047908665758176414,-0.0020089543243524627
0.047,-0.05429648785926659,-0.0019619127477855476
0.048,-0.04152084365708622,-0.0019014253891020821
0.049,-0.025551288404360755,-0.001832295288118551
0.05,-0.006387822101090189,-0.0017534899068117312
0.051,0.012775644202180378,-0.001666543528508875
0.052,0.02235737735381566,-0.0015727819854504947
0.053,0.035133021555996034,-0.001466386939643045
0.054,0.038326932606541124,-0.0013535613966750596
0.055,0.04471475470763132,-0.0012488324639770426
0.056,0.035133021555996034,-0.0011408165150554562
0.057,0.02235737735381566,-0.0010330084463438752
0.058,0.0031939110505450944,-0.0009190967373779742
0.059,-0.006387822101090189,-0.0007705039422630556
0.06,-0.01596955525272547,-0.0006060562208840846
0.061,-0.035133021555996034,-0.0004484174963714337
0.062,-0.03193911050545094,-0.0002887012690331688
0.063,-0.03193911050545094,-0.00011253903573420547
0.064,-0.03193911050545094,5.955209494217035e-05
0.065,-0.025551288404360755,0.0002395415685703312
0.066,-0.01596955525272547,0.00040536214929303327
0.067,-0.006387822101090189,0.0004907698578527288
0.068,0.006387822101090189,0.000538068372445253
0.069,-0.0031939110505450944,0.0005678019225099296
0.07,-0.0031939110505450944,0.0005798964787548772
0.071,0.0,0.0005942278584241562
0.072,-0.0031939110505450944,0.000603022952223153
0.073,-0.0031939110505450944,0.0005991152510227518
0.074,-0.01596955525272547,0.0005886959102874153
0.075,-0.025551288404360755,0.0005791638702398806
0.076,-0.04471475470763132,0.0005666181533820928
0.077,-0.05110257680872151,0.0005551211054315924
0.078,-0.05110257680872151,0.000541225162511622
0.079,-0.05110257680872151,0.0005134568748052486
0.08,-0.06387822101090188,0.0004831733998722374
0.081,-0.05110257680872151,0.0004472404959601161
0.082,-0.038326932606541124,0.00041403976228850315
0.083,-0.03193911050545094,0.00041066973262377833
0.084,-0.012775644202180378,0.0004198088796239934
0.085,-0.009581733151635281,0.0004332921503958242
0.086,-0.0031939110505450944,0.00045097975902318237
0.087,0.0,0.0004642392906383017
0.088,0.0031939110505450944,0.0004766965350132833
0.089,-0.0031939110505450944,0.0004913437403758882
0.09,0.0031939110505450944,0.0005057824161806262
0.091,-0.01596955525272547,0.0005178389386061461
0.092,-0.02235737735381566,0.0005287188324529943
0.093,-0.04152084365708622,0.0005355563571059351
0.094,-0.04471475470763132,0.0005405574093773989
0.095,-0.060684309960356786,0.0005502587338337198
0.096,-0.07026604311199207,0.0005582973073423987
0.097,-0.06387822101090188,0.0005662808455969148
0.098,-0.047908665758176414,0.0005698029106393883
0.099,-0.035133021555996034,0.0005535618740204249
0.1,-0.01596955525272547,0.0005271033756888251
0.101,-0.0031939110505450944,0.0004974565763834453
0.102,0.009581733151635281,0.000462811760345351
0.103,0.012775644202180378,0.0004231024357510426
0.104,0.025551288404360755,0.00038079587112439014
0.105,0.028745199454905845,0.0003332239147046663
0.106,0.02235737735381566,0.00028446598514703
0.107,0.019163466303270562,0.0002465906572542588
0.108,0.0,0.0002123074998051829
0.109,-0.0031939110505450944,0.00017567731499881008
0.11,-0.028745199454905845,0.00013874869200362533
0.111,-0.038326932606541124,0.00010254741098063777
0.112,-0.03193911050545094,6.427181612362342e-05
0.113,-0.04471475470763132,2.7824505360618122e-05
0.114,-0.04152084365708622,-1.1801908183821875e-05
0.115,-0.03193911050545094,-6.837893642988437e-05
0.116,-0.019163466303270562,-0.00013217813437406138
0.117,-0.01596955525272547,-0.0002013454047998274
0.118,0.0,-0.0002732269489534759
0.119,0.0,-0.00033711834601879426
0.12,0.009581733151635281,-0.0003997780747514306
0.121,0.019163466303270562,-0.00046147588924680134
0.122,0.02235737735381566,-0.0005235170227554346
0.123,0.009581733151635281,-0.0005966592147428078
0.124,0.0,-0.0006738369112622575
0.125,-0.009581733151635281,-0.000743605834622117
0.126,-0.028745199454905845,-0.0008113048899767055
0.127,-0.038326932606541124,-0.0008876386321562102
0.128,-0.05110257680872151,-0.0009596920187756185
0.129,-0.05749039890981169,-0.0010332751496498875
0.13,-0.06387822101090188,-0.001096559449195253
0.131,-0.06387822101090188,-0.0011118156231404667
0.132,-0.05110257680872151,-0.001102801781087027
0.133,-0.05429648785926659,-0.0010845284825772585
0.134,-0.028745199454905845,-0.001054341610433382
0.135,-0.006387822101090189,-0.0010168076372645686
0.136,-0.0031939110505450944,-0.0009736814599445219
0.137,0.006387822101090189,-0.0009193288049595644
0.138,0.019163466303270562,-0.0008611859623801498
0.139,0.02235737735381566,-0.0008186056698317643
0.14,0.009581733151635281,-0.0007799588173302618
0.141,0.0,-0.0007378131570913523
0.142,0.0031939110505450944,-0.0006940884601806064
0.143,-0.03193911050545094,-0.0006468733418334374
0.144,-0.03193911050545094,-0.0005953200468324421
0.145,-0.038326932606541124,-0.0005444300584990894
0.146,-0.05110257680872151,-0.0004890223168107225
0.147,-0.047908665758176414,-0.00041649451993474955
0.148,-0.05110257680872151,-0.0003364016796355768
0.149,-0.035133021555996034,-0.0002479173915278393
0.15,-0.03193911050545094,-0.00015591331026227
0.151,-0.01596955525272547,-7.623283242899716e-05
0.152,-0.006387822101090189,2.3737941046087946e-06
0.153,0.0,7.868419609371418e-05
0.154,0.009581733151635281,0.0001569300462115119
0.155,0.02235737735381566,0.000259521295231232
0.156,0.012775644202180378,0.0003718598555671737
0.157,0.0031939110505450944,0.0004747805843088489
0.158,-0.006387822101090189,0.0005764219741791431
0.159,-0.012775644202180378,0.0006907982066033847
0.16,-0.028745199454905845,0.0007992288359204441
0.161,-0.025551288404360755,0.000912543850585924
0.162,-0.04152084365708622,0.0010111087235551534
0.163,-0.038326932606541124,0.0010355283494801197
0.164,-0.028745199454905845,0.0010242414856274148
0.165,-0.02235737735381566,0.000995100981555214
0.166,-0.0031939110505450944,0.000948996295609427
0.167,0.019163466303270562,0.0009059508472087719
0.168,0.028745199454905845,0.0008575301576356415
0.169,0.028745199454905845,0.0007977881746539161
0.17,0.035133021555996034,0.0007316399439496115
0.171,0.035133021555996034,0.0006621050776408292
0.172,0.025551288404360755,0.0005882115872738177
0.173,0.025551288404360755,0.0005170612414004353
0.174,0.009581733151635281,0.0004442158635657353
0.175,-0.009581733151635281,0.00035678684784729025
0.176,-0.038326932606541124,0.00026848576927088273
0.177,-0.05110257680872151,0.00017505825715155492
0.178,-0.05110257680872151,8.730537397232815e-05
0.179,-0.06707213206144698,3.98219735856434e-05
0.18,-0.06707213206144698,1.0861378515394582e-05
0.181,-0.07026604311199207,-1.1219665932958463e-05
0.182,-0.06707213206144698,-2.5377363777851593e-05
0.183,-0.047908665758176414,-3.953562059573301e-05
0.184,-0.028745199454905845,-5.1571091761652996e-05
0.185,-0.01596955525272547,-5.721533134980344e-05
0.186,0.0,-6.074264486353116e-05
0.187,0.009581733151635281,-7.07409544587722e-05
0.188,0.019163466303270562,-8.209888501197565e-05
0.189,0.03193911050545094,-9.317128504814288e-05
0.19,0.025551288404360755,-0.00010368332106946099
0.191,0.019163466303270562,-0.00011014140503998327
0.192,0.009581733151635281,-0.00011501536763649382
0.193,-0.02235737735381566,-0.00011867934562569355
0.194,-0.028745199454905845,-0.00012183631114369218
0.195,-0.04471475470763132,-0.0001275064652593738
0.196,-0.04471475470763132,-0.00013377640631905005
0.197,-0.04471475470763132,-0.00013996100379755458
0.198,-0.04152084365708622,-0.00014591194846634258
0.199,-0.035133021555996034,-0.00015030155281397272
0.2,-0.019163466303270562,-0.00015391793343263994
0.201,-0.012775644202180378,-0.00015700372892023807
0.202,-0.0031939110505450944,-0.00015956409338716644
0.203,0.012775644202180378,-0.0001623007735857247
0.204,0.02235737735381566,-0.00016478288803555672
0.205,0.02235737735381566,-0.00016620058792817246
0.206,0.028745199454905845,-0.00016698999423101366
0.207,0.025551288404360755,-0.00016799483029762924
0.208,0.02235737735381566,-0.0001682411228107483
0.209,0.0,-0.00016834835331981947
0.21,-0.012775644202180378,-0.00016729607744564445
0.211,-0.025551288404360755,-0.00016201775784881653
0.212,-0.047908665758176414,-0.00015461336199158664
0.213,-0.047908665758176414,-0.00014571391814837203
0.214,-0.05429648785926659,-0.00013569121919776458
0.215,-0.038326932606541124,-0.00012637207194795717
0.216,-0.028745199454905845,-0.00011670066403136087
0.217,-0.01596955525272547,-0.00010654228399217666
0.218,0.019163466303270562,-9.581791010934824e-05
0.219,0.025551288404360755,-8.316588935966548e-05
0.22,0.03193911050545094,-6.952853550997138e-05
0.221,0.04471475470763132,-5.648385984038948e-05
0.222,0.05110257680872151,-4.3317237656162225e-05
0.223,0.047908665758176414,-2.8569885642861223e-05
0.224,0.035133021555996034,-1.4059535277980979e-05
0.225,0.019163466303270562,1.07858109102614e-06
0.226,-0.0031939110505450944,1.510376102657113e-05
0.227,-0.019163466303270562,2.2658128932758816e-05
0.228,-0.03193911050545094,2.7150682374410238e-05
0.229,-0.05749039890981169,3.0313317190598486e-05
0.23,-0.06387822101090188,3.207852593580551e-05
0.231,-0.05749039890981169,3.38977757345393e-05
0.232,-0.05110257680872151,3.5278520020713824e-05
0.233,-0.025551288404360755,3.560639876515651e-05
0.234,-0.012775644202180378,3.546404705003673e-05
0.235,-0.006387822101090189,3.578249145171058e-05
0.236,0.006387822101090189,3.6036814608741524e-05
0.237,0.01596955525272547,3.63246287874613e-05
0.238,0.02235737735381566,3.646023619561492e-05
0.239,0.02235737735381566,3.5642894658100054e-05
0.24,0.012775644202180378,3.460265115271661e-05
0.241,0.006387822101090189,3.3232700400499815e-05
0.242,-0.0031939110505450944,3.197924776954686e-05
0.243,-0.019163466303270562,3.2361888383530725e-05
0.244,-0.04471475470763132,3.3431932837823946e-05
0.245,-0.05110257680872151,3.467081658510133e-05
0.246,-0.060684309960356786,3.6136612174756e-05
0.247,-0.05110257680872151,3.7509135378500534e-05
0.248,-0.04471475470763132,3.88631415535524e-05
0.249,-0.038326932606541124,4.0392986649213437e-05
0.25,-0.02235737735381566,4.190226448451187e-05
0.251,-0.012775644202180378,4.296698283622253e-05
0.252,-0.0031939110505450944,4.384493948639185e-05
0.253,0.006387822101090189,4.465005424594196e-05
0.254,0.01596955525272547,4.537963513301044e-05
0.255,0.02235737735381566,4.6160835147626705e-05
0.256,0.006387822101090189,4.6924692605955796e-05
0.257,-0.0031939110505450944,4.7635809468294084e-05
0.258,-0.009581733151635281,4.830382488219751e-05
0.259,-0.035133021555996034,4.891693229373482e-05
0.26,-0.04152084365708622,4.948513255550789e-05
0.261,-0.04471475470763132,4.999874800833544e-05
0.262,-0.05110257680872151,5.046954740107624e-05
0.263,-0.047908665758176414,5.093083062865779e-05
0.264,-0.04152084365708622,5.1355306831106054e-05
0.265,-0.038326932606541124,5.174862007803395e-05
0.266,-0.01596955525272547,5.2096074758749244e-05
0.267,-0.0031939110505450944,5.2335288442831434e-05
0.268,-0.0031939110505450944,5.2505948411689176e-05
0.269,0.0,5.2652007102615374e-05
0.27,0.006387822101090189,5.275596400504783e-05
0.271,0.01596955525272547,5.279398073606422e-05
0.272,0.01596955525272547,5.2802130163779305e-05
0.273,0.012775644202180378,5.275167914763757e-05
0.274,0.0,5.268788163868409e-05
0.275,-0.012775644202180378,5.274014271813928e-05
0.276,-0.019163466303270562,5.2820937881149024e-05
0.277,-0.025551288404360755,5.290728777707328e-05
0.278,-0.028745199454905845,5.298237531517662e-05
0.279,-0.04471475470763132,5.2964693118659076e-05
0.28,-0.05110257680872151,5.290437277503347e-05
0.281,-0.04471475470763132,5.280793643246701e-05
0.282,-0.03193911050545094,5.268150512306102e-05
0.283,-0.019163466303270562,5.259348590270742e-05
0.284,0.0,5.2499701521097885e-05
0.285,0.012775644202180378,5.232276749895478e-05
0.286,0.02235737735381566,5.21007094662074e-05
0.287,0.019163466303270562,5.1911266267119666e-05
0.288,0.01596955525272547,5.166352610553148e-05
0.289,0.019163466303270562,5.139880051529803e-05
0.29,0.009581733151635281,5.103462420394692e-05
0.291,0.0,5.03066262168688e-05
0.292,-0.01596955525272547,4.9382905007851756e-05
0.293,-0.03193911050545094,4.836710738579204e-05
0.294,-0.03193911050545094,4.724355037612619e-05
0.295,-0.038326932606541124,4.6050587347359464e-05
0.296,-0.05110257680872151,4.479636834488278e-05
0.297,-0.05110257680872151,4.344372666288849e-05
0.298,-0.04152084365708622,4.204227712397019e-05
0.299,-0.035133021555996034,4.0716113523759594e-05
0.3,-0.019163466303270562,3.9392531932434384e-05
0.301,-0.0031939110505450944,3.8026960793047205e-05
0.302,-0.0031939110505450944,3.663164117529306e-05
0.303,0.01596955525272547,3.519335353956992e-05
0.304,0.02235737735381566,3.3710409294120224e-05
0.305,0.02235737735381566,3.22129476312984e-05
0.306,0.02235737735381566,3.067289060763723e-05
0.307,0.009581733151635281,2.9020614828518765e-05
0.308,0.0031939110505450944,2.731057977166086e-05
0.309,-0.025551288404360755,2.554179552520106e-05
0.31,-0.04152084365708622,2.3740628425811554e-05
0.311,-0.047908665758176414,2.1992077939392372e-05
0.312,-0.060684309960356786,2.023883328076736e-05
0.313,-0.05749039890981169,1.848663836900107e-05
0.314,-0.05110257680872151,1.6716752526216756e-05
0.315,-0.035133021555996034,1.481751539845026e-05
0.316,-0.025551288404360755,1.2863054528956956e-05
0.317,-0.009581733151635281,1.0957710539167217e-05
0.318,0.0,9.056727880606545e-06
0.319,0.006387822101090189,7.076842376075097e-06
0.32,0.02235737735381566,5.1257442846471705e-06
0.321,0.02235737735381566,3.149945395760157e-06
0.322,0.025551288404360755,1.2547846961958256e-06
0.323,0.035133021555996034,-2.3314986237811317e-07
0.324,0.012775644202180378,-1.5201804626209865e-06
0.325,0.0031939110505450944,-2.7233865045198874e-06
0.326,-0.012775644202180378,-3.8292324025474985e-06
0.327,-0.02235737735381566,-4.901972880177139e-06
0.328,-0.025551288404360755,-5.933366379610186e-06
0.329,-0.03193911050545094,-6.880540961912532e-06
0.33,-0.019163466303270562,-7.792482904689432e-06
0.331,-0.03193911050545094,-8.779129203072583e-06
0.332,-0.01596955525272547,-9.775340924738295e-06
0.333,0.0,-1.0751584421824273e-05
0.334,0.0031939110505450944,-1.1710882715665089e-05
0.335,0.012775644202180378,-1.2622824563936357e-05
0.336,0.01596955525272547,-1.3504054081845012e-05
0.337,0.02235737735381566,-1.4371742953449303e-05
0.338,0.025551288404360755,-1.521719485313977e-05
0.339,0.02235737735381566,-1.6030186442219848e-05
0.34,0.006387822101090189,-1.6823176446827416e-05
0.341,0.0,-1.758280377828123e-05
0.342,-0.02235737735381566,-1.8326808232964714e-05
0.343,-0.05110257680872151,-1.9102121641708978e-05
0.344,-0.06387822101090188,-1.987278667984367e-05
0.345,-0.060684309960356786,-2.064599003043218e-05
0.346,-0.07026604311199207,-2.1404776458673928e-05
0.347,-0.07345995416253714,-2.20670014389327e-05
0.348,-0.06387822101090188,-2.2685277119683013e-05
0.349,-0.05110257680872151,-2.333040394565657e-05
0.35,-0.035133021555996034,-2.3971435402189964e-05
0.351,-0.012775644202180378,-2.4553023607998877e-05
0.352,0.0031939110505450944,-2.5145613792182405e-05
0.353,0.0,-2.571356776091738e-05
0.354,0.009581733151635281,-2.632528870419166e-05
0.355,0.012775644202180378,-2.719670826522409e-05
0.356,0.01596955525272547,-2.819127885574849e-05
0.357,0.009581733151635281,-2.922376547012392e-05
0.358,-0.0031939110505450944,-3.030823218588689e-05
0.359,-0.01596955525272547,-3.1416075509649496e-05
0.36,-0.028745199454905845,-3.253894839525853e-05
0.361,-0.04152084365708622,-3.370812755226318e-05
0.362,-0.04471475470763132,-3.488217482907913e-05
0.363,-0.060684309960356786,-3.595509983942267e-05
0.364,-0.05749039890981169,-3.698985007446862e-05
0.365,-0.05110257680872151,-3.802626979576642e-05
0.366,-0.04152084365708622,-3.905363736221351e-05
0.367,-0.025551288404360755,-4.0082093401919845e-05
0.368,-0.01596955525272547,-4.111545256876918e-05
0.369,-0.0031939110505450944,-4.212717705278663e-05
0.37,0.012775644202180378,-4.314382030868232e-05
0.371,0.02235737735381566,-4.423123256501894e-05
0.372,0.019163466303270562,-4.533921151214874e-05
0.373,0.019163466303270562,-4.6468875264004926e-05
0.374,0.02235737735381566,-4.75966376865075e-05
0.375,0.0031939110505450944,-4.864478869200197e-05
0.376,-0.012775644202180378,-4.9666685973900386e-05
0.377,-0.01596955525272547,-5.0657501886098456e-05
0.378,-0.038326932606541124,-5.163522047532544e-05
0.379,-0.05110257680872151,-5.270320696424901e-05
0.38,-0.047908665758176414,-5.379361737493051e-05
0.381,-0.04471475470763132,-5.4812278449787035e-05
0.382,-0.04152084365708622,-5.579993375911193e-05
0.383,-0.028745199454905845,-5.683086463660172e-05
0.384,-0.01596955525272547,-5.7809024415850765e-05
0.385,-0.0031939110505450944,-5.8784490871174774e-05
0.386,0.0031939110505450944,-5.9661613893810634e-05
0.387,0.0031939110505450944,-6.0145214876947176e-05
0.388,0.02235737735381566,-6.042344911621877e-05
0.389,0.019163466303270562,-6.0597817595781865e-05
0.39,0.0,-6.066090367764399e-05
0.391,-0.006387822101090189,-6.068240827501e-05
0.392,-0.025551288404360755,-6.0645715235426955e-05
0.393,-0.035133021555996034,-6.051495906772254e-05
0.394,-0.047908665758176414,-6.032916711387001e-05
0.395,-0.05429648785926659,-6.016479655347924e-05
0.396,-0.06707213206144698,-5.997819199574983e-05
0.397,-0.06707213206144698,-5.9759426738834436e-05
0.398,-0.05429648785926659,-5.950514626585417e-05
0.399,-0.04471475470763132,-5.917935267596538e-05
0.4,-0.01596955525272547,-5.8810894818780766e-05
0.401,-0.0031939110505450944,-5.840541047013035e-05
0.402,0.0031939110505450944,-5.7971899485646256e-05
0.403,0.012775644202180378,-5.7549081375311675e-05
0.404,0.025551288404360755,-5.711674336418081e-05
0.405,0.038326932606541124,-5.665336331063315e-05
0.406,0.02235737735381566,-5.617048571239972e-05
0.407,0.025551288404360755,-5.568413178838129e-05
0.408,0.009581733151635281,-5.517788491860483e-05
0.409,-0.0031939110505450944,-5.4662031713725226e-05
0.41,-0.038326932606541124,-5.41220205360746e-05
0.411,-0.047908665758176414,-5.3502049988764095e-05
0.412,-0.05110257680872151,-5.283855292183814e-05
0.413,-0.05429648785926659,-5.2171372411617575e-05
0.414,-0.05110257680872151,-5.148586788839707e-05
0.415,-0.04152084365708622,-5.076083812707218e-05
0.416,-0.038326932606541124,-5.0028874930839885e-05
0.417,-0.006387822101090189,-4.9270133702858065e-05
0.418,0.0,-4.8520825762925076e-05
0.419,0.006387822101090189,-4.7889476047211344e-05
0.42,0.019163466303270562,-4.730739801915894e-05
0.421,0.02235737735381566,-4.673865010565127e-05
0.422,0.009581733151635281,-4.618560147079742e-05
0.423,0.0,-4.562121242766965e-05
0.424,-0.012775644202180378,-4.505360996766192e-05
0.425,-0.019163466303270562,-4.4495966714012016e-05
0.426,-0.04471475470763132,-4.393531343928487e-05
0.427,-0.05749039890981169,-4.334797228623609e-05
0.428,-0.060684309960356786,-4.274789645242647e-05
0.429,-0.07026604311199207,-4.213613008539175e-05
0.43,-0.06387822101090188,-4.1515611685740896e-05
0.431,-0.047908665758176414,-4.090201903724628e-05
0.432,-0.04152084365708622,-4.028245065240969e-05
0.433,-0.02235737735381566,-3.9656948176505045e-05
0.434,0.0,-3.901970242970766e-05
0.435,0.009581733151635281,-3.8347965859888736e-05
0.436,0.01596955525272547,-3.76554043512441e-05
0.437,0.012775644202180378,-3.695327361619189e-05
0.438,0.012775644202180378,-3.623774139362403e-05
0.439,0.012775644202180378,-3.55060619175846e-05
0.44,0.0,-3.476380170610656e-05
0.441,-0.009581733151635281,-3.4006283557178415e-05
0.442,-0.01596955525272547,-3.3240599114488394e-05
0.443,-0.04152084365708622,-3.248953925322967e-05
0.444,-0.038326932606541124,-3.173887953746754e-05
0.445,-0.04471475470763132,-3.097604832455455e-05
0.446,-0.05749039890981169,-3.020532175568238e-05
0.447,-0.05429648785926659,-2.9430003761447928e-05
0.448,-0.05110257680872151,-2.864280986153861e-05
0.449,-0.03193911050545094,-2.785158652900088e-05
0.45,-0.01596955525272547,-2.704512342145709e-05
0.451,-0.0031939110505450944,-2.619239498630029e-05
0.452,0.0031939110505450944,-2.5314620296649506e-05
0.453,-0.0031939110505450944,-2.44165534797049e-05
0.454,0.012775644202180378,-2.3503037224698945e-05
0.455,0.01596955525272547,-2.2595395675718826e-05
0.456,0.009581733151635281,-2.1680082682601033e-05
0.457,0.0031939110505450944,-2.0756611975332175e-05
0.458,-0.0031939110505450944,-1.982206449406367e-05
0.459,-0.01596955525272547,-1.885537505099279e-05
0.46,-0.04152084365708622,-1.7870649357930674e-05
0.461,-0.05749039890981169,-1.6887250683030215e-05
0.462,-0.06707213206144698,-1.589696040331804e-05
0.463,-0.06387822101090188,-1.4885366497150112e-05
0.464,-0.05749039890981169,-1.387201555478163e-05
0.465,-0.05429648785926659,-1.2844743557135798e-05
0.466,-0.035133021555996034,-1.1825046347280419e-05
0.467,-0.012775644202180378,-1.08758465846588e-05
0.468,-0.009581733151635281,-9.9556524382638e-06
0.469,0.0031939110505450944,-9.05080254464136e-06
0.47,0.02235737735381566,-8.15601382139818e-06
0.471,0.02235737735381566,-7.238567330347872e-06
0.472,0.02235737735381566,-6.317471169858668e-06
0.473,0.019163466303270562,-5.397698118763616e-06
0.474,0.012775644202180378,-4.479127481687807e-06
0.475,-0.012775644202180378,-3.5814756415560915e-06
0.476,-0.019163466303270562,-2.6923830574352577e-06
0.477,-0.025551288404360755,-1.7839900692982366e-06
0.478,-0.025551288404360755,-8.714162710050784e-07
0.479,-0.04152084365708622,1.2001902603830122e-08
0.48,-0.047908665758176414,9.026808676484199e-07
0.481,-0.047908665758176414,1.7863765189824573e-06
0.482,-0.035133021555996034,2.6932779299559186e-06
0.483,-0.012775644202180378,3.7243297200455025e-06
0.484,-0.0031939110505450944,4.815965184999846e-06
0.485,0.012775644202180378,5.922143661516758e-06
0.486,0.012775644202180378,7.053912157413975e-06
0.487,0.028745199454905845,8.209734198834757e-06
0.488,0.028745199454905845,9.374454860991671e-06
0.489,0.03193911050545094,1.0565266850113293e-05
0.49,0.03193911050545094,1.1755596453333794e-05
0.491,0.02235737735381566,1.2868591576036405e-05
0.492,0.0031939110505450944,1.3950290832008148e-05
0.493,-0.006387822101090189,1.5036643447912153e-05
0.494,-0.025551288404360755,1.611540444377673e-05
0.495,-0.035133021555996034,1.7182618454656677e-05
0.496,-0.04471475470763132,1.8253129357726336e-05
0.497,-0.05110257680872151,1.9302208074524034e-05
0.498,-0.04471475470763132,2.0359912013290863e-05
0.499,-0.03193911050545094,2.1507314797880416e-05
0.5,-0.01596955525272547,2.2685838821915293e-05
0.501,-0.009581733151635281,2.3888421603936305e-05
0.502,0.0,2.5095333532112908e-05
0.503,0.009581733151635281,2.6233699428575778e-05
0.504,0.02235737735381566,2.7351299532490065e-05
0.505,0.025551288404360755,2.844684620939667e-05
0.506,0.03193911050545094,2.953306576767616e-05
0.507,0.02235737735381566,3.069381459706029e-05
0.508,0.019163466303270562,3.18736684560894e-05
0.509,0.0,3.299228368006799e-05
0.51,-0.025551288404360755,3.4085008910155176e-05
0.511,-0.028745199454905845,3.521811180665506e-05
0.512,-0.035133021555996034,3.63070574222234e-05
0.513,-0.04152084365708622,3.739511993588036e-05
0.514,-0.047908665758176414,3.839895257504296e-05
0.515,-0.047908665758176414,3.906128253390079e-05
0.516,-0.025551288404360755,3.954626407745644e-05
0.517,-0.006387822101090189,3.9941065006089774e-05
0.518,0.009581733151635281,4.0240277889600126e-05
0.519,0.01596955525272547,4.0507375675406226e-05
0.52,0.028745199454905845,4.0725422675533477e-05
0.521,0.025551288404360755,4.086375952653303e-05
0.522,0.019163466303270562,4.095488964520088e-05
0.523,0.009581733151635281,4.10594745564314e-05
0.524,-0.0031939110505450944,4.11431793149338e-05
0.525,-0.01596955525272547,4.1201364630030685e-05
0.526,-0.035133021555996034,4.122946746160877e-05
0.527,-0.04471475470763132,4.119397295115974e-05
0.528,-0.05110257680872151,4.11232099659397e-05
0.529,-0.05749039890981169,4.1019432245540306e-05
0.53,-0.06707213206144698,4.0894531920003404e-05
0.531,-0.05429648785926659,4.079392431121624e-05
0.532,-0.038326932606541124,4.069203389963905e-05
0.533,-0.019163466303270562,4.0567894587579104e-05
0.534,0.0,4.04300683878432e-05
0.535,0.01596955525272547,4.0285261794823e-05
0.536,0.01596955525272547,4.012350492549225e-05
0.537,0.01596955525272547,3.995437219444574e-05
0.538,0.02235737735381566,3.976557042070412e-05
0.539,0.025551288404360755,3.951419912202007e-05
0.54,-0.0031939110505450944,3.922824447863473e-05
0.541,-0.012775644202180378,3.893555243828297e-05
0.542,-0.028745199454905845,3.8626737660725444e-05
0.543,-0.04471475470763132,3.829041800189647e-05
0.544,-0.038326932606541124,3.79467339881334e-05
0.545,-0.04471475470763132,3.7581890628687084e-05
0.546,-0.05110257680872151,3.722014897278738e-05
0.547,-0.05110257680872151,3.693249954796335e-05
0.548,-0.035133021555996034,3.667391799142765e-05
0.549,-0.025551288404360755,3.642281735411693e-05
0.55,-0.019163466303270562,3.617934542254681e-05
0.551,-0.0031939110505450944,3.5922116840541385e-05
0.552,0.0031939110505450944,3.565995165245841e-05
0.553,0.019163466303270562,3.540064726384717e-05
0.554,0.02235737735381566,3.5137969700002735e-05
0.555,0.035133021555996034,3.486495485677172e-05
0.556,0.038326932606541124,3.458552388312932e-05
0.557,0.02235737735381566,3.429498643708572e-05
0.558,0.006387822101090189,3.399747842326511e-05
0.559,-0.0031939110505450944,3.3705856388077535e-05
0.56,-0.019163466303270562,3.340768427669161e-05
0.561,-0.025551288404360755,3.310683801265093e-05
0.562,-0.025551288404360755,3.2794026688415724e-05
0.563,-0.02235737735381566,3.243883262919325e-05
0.564,-0.02235737735381566,3.206106525402552e-05
0.565,-0.009581733151635281,3.16702084233803e-05
0.566,0.0031939110505450944,3.126662140881121e-05
0.567,0.019163466303270562,3.086024959942703e-05
0.568,0.028745199454905845,3.0447263924217786e-05
0.569,0.028745199454905845,3.002443303626739e-05
0.57,0.025551288404360755,2.9594778158393348e-05
0.571,0.02235737735381566,2.9161180295968402e-05
0.572,0.019163466303270562,2.872232980555092e-05
0.573,0.012775644202180378,2.828180702707469e-05
0.574,0.0031939110505450944,2.783718368885785e-05
0.575,-0.012775644202180378,2.7380775944731678e-05
0.576,-0.03193911050545094,2.6920388110128426e-05
0.577,-0.05110257680872151,2.645453755401381e-05
0.578,-0.05110257680872151,2.598845724715679e-05
0.579,-0.05429648785926659,2.5540277741297618e-05
0.58,-0.05429648785926659,2.5099183803781082e-05
0.581,-0.05429648785926659,2.465623338793813e-05
0.582,-0.038326932606541124,2.4214549025698703e-05
0.583,-0.02235737735381566,2.377644090310336e-05
0.584,-0.006387822101090189,2.333745577048971e-05
0.585,0.012775644202180378,2.2901365462468796e-05
0.586,0.01596955525272547,2.246254071357953e-05
0.587,0.02235737735381566,2.2002743142782463e-05
0.588,0.028745199454905845,2.1533420999106496e-05
0.589,0.02235737735381566,2.1064762798161533e-05
0.59,0.006387822101090189,2.0593335744514263e-05
0.591,0.0,2.0116407870325996e-05
0.592,-0.01596955525272547,1.9639979180889884e-05
0.593,-0.04152084365708622,1.915778706348796e-05
0.594,-0.04152084365708622,1.867892491195588e-05
0.595,-0.05110257680872151,1.8228578039325737e-05
0.596,-0.05749039890981169,1.778962406169491e-05
0.597,-0.07026604311199207,1.7358066463194285e-05
0.598,-0.05110257680872151,1.6930224438544002e-05
0.599,-0.035133021555996034,1.6489129507290916e-05
0.6,-0.019163466303270562,1.604547169702609e-05
0.601,0.009581733151635281,1.560049796602242e-05
0.602,0.0031939110505450944,1.5155765324465446e-05
0.603,0.009581733151635281,1.4726564885272652e-05
0.604,0.019163466303270562,1.4303220574194875e-05
0.605,0.019163466303270562,1.386842191701549e-05
0.606,0.01596955525272547,1.3430872964065554e-05
0.607,0.009581733151635281,1.3008530431866038e-05
0.608,-0.0031939110505450944,1.2580851634086348e-05
0.609,-0.01596955525272547,1.2156669854792213e-05
0.61,-0.025551288404360755,1.1717992489584886e-05
0.611,-0.03193911050545094,1.1205878279867325e-05
0.612,-0.04152084365708622,1.0657529751086596e-05
0.613,-0.05429648785926659,1.0098510804364205e-05
0.614,-0.04471475470763132,9.523356654752173e-06
0.615,-0.04152084365708622,8.935551435546416e-06
0.616,-0.03193911050545094,8.341521793268267e-06
0.617,-0.012775644202180378,7.731795122115062e-06
0.618,-0.0031939110505450944,7.120352115649055e-06
0.619,0.006387822101090189,6.546180117182193e-06
0.62,0.006387822101090189,5.986001544323396e-06
0.621,0.02235737735381566,5.422615307349043e-06
0.622,0.025551288404360755,4.861601845238385e-06
0.623,0.012775644202180378,4.303345443139476e-06
0.624,0.009581733151635281,3.742072488794688e-06
0.625,-0.009581733151635281,3.1895753949642503e-06
0.626,-0.02235737735381566,2.6321551214560647e-06
0.627,-0.038326932606541124,2.0334727893209145e-06
0.628,-0.047908665758176414,1.4200999010896541e-06
0.629,-0.05429648785926659,7.944060130931187e-07
0.63,-0.05429648785926659,1.6612664162613288e-07
0.631,-0.03193911050545094,-4.299037172639325e-07
0.632,-0.01596955525272547,-1.0167994702556084e-06
0.633,-0.009581733151635281,-1.5935083526783513e-06
0.634,0.019163466303270562,-2.166648838342305e-06
0.635,0.028745199454905845,-2.7779665847553796e-06
0.636,0.028745199454905845,-3.399896417881957e-06
0.637,0.03193911050545094,-3.99312134472442e-06
0.638,0.03193911050545094,-4.574803618276663e-06
0.639,0.03193911050545094,-5.1767857957889896e-06
0.64,0.01596955525272547,-5.758164787718784e-06
0.641,0.0031939110505450944,-6.3401065800447735e-06
0.642,-0.019163466303270562,-6.8820205131801196e-06
0.643,-0.035133021555996034,-7.258860534802891e-06
0.644,-0.038326932606541124,-7.55044022761519e-06
0.645,-0.05110257680872151,-7.798853477206232e-06
0.646,-0.05749039890981169,-8.001686980475661e-06
0.647,-0.05429648785926659,-8.19034991085323e-06
0.648,-0.05429648785926659,-8.356099939464132e-06
0.649,-0.03193911050545094,-8.48415625167923e-06
0.65,-0.019163466303270562,-8.589999986206869e-06
0.651,-0.006387822101090189,-8.701874485410946e-06
0.652,0.006387822101090189,-8.803856555113749e-06
0.653,0.009581733151635281,-8.894517284688327e-06
0.654,0.019163466303270562,-8.971296431959462e-06
0.655,0.019163466303270562,-9.017459303601453e-06
0.656,0.012775644202180378,-9.047428933427253e-06
0.657,0.0031939110505450944,-9.061746798787009e-06
0.658,-0.012775644202180378,-9.067026188403534e-06
0.659,-0.038326932606541124,-9.08774863413515e-06
0.66,-0.047908665758176414,-9.109834594595132e-06
0.661,-0.05749039890981169,-9.12263531856512e-06
0.662,-0.07665386521308225,-9.129997175754943e-06
0.663,-0.06707213206144698,-9.133672649139739e-06
0.664,-0.06387822101090188,-9.129712073482767e-06
0.665,-0.05429648785926659,-9.122890143401748e-06
0.666,-0.028745199454905845,-9.107310794237645e-06
0.667,-0.0031939110505450944,-9.063312141106173e-06
0.668,0.0031939110505450944,-9.003709029323037e-06
0.669,0.006387822101090189,-8.940605316185626e-06
0.67,0.02235737735381566,-8.870134727921558e-06
0.671,0.028745199454905845,-8.7882291615874e-06
0.672,0.025551288404360755,-8.702962804905066e-06
0.673,0.02235737735381566,-8.608354213365298e-06
0.674,0.01596955525272547,-8.514677824719638e-06
0.675,0.0,-8.451544401739467e-06
0.676,-0.025551288404360755,-8.400143056473933e-06
0.677,-0.038326932606541124,-8.351989948480151e-06
0.678,-0.05110257680872151,-8.306761272690609e-06
0.679,-0.05429648785926659,-8.25452485457381e-06
0.68,-0.05749039890981169,-8.199911967122374e-06
0.681,-0.05429648785926659,-8.145948356444033e-06
0.682,-0.04152084365708622,-8.09064390076193e-06
0.683,-0.03193911050545094,-8.033414674679412e-06
0.684,0.0031939110505450944,-7.974473270900292e-06
0.685,0.0031939110505450944,-7.910396190786992e-06
0.686,-0.006387822101090189,-7.843507824178192e-06
0.687,0.006387822101090189,-7.779873747368853e-06
0.688,0.019163466303270562,-7.713216169542599e-06
0.689,0.012775644202180378,-7.64619828051834e-06
0.69,0.006387822101090189,-7.573444848828336e-06
0.691,0.0031939110505450944,-7.47803311914896e-06
0.692,-0.006387822101090189,-7.371184291454237e-06
0.693,-0.01596955525272547,-7.2574218197036004e-06
0.694,-0.03193911050545094,-7.1376788094879155e-06
0.695,-0.04471475470763132,-7.019312986543516e-06
0.696,-0.05749039890981169,-6.8986762088842895e-06
0.697,-0.060684309960356786,-6.774374893718655e-06
0.698,-0.05110257680872151,-6.6472165237188205e-06
0.699,-0.04471475470763132,-6.515090381625353e-06
0.7,-0.025551288404360755,-6.379646210464764e-06
0.701,-0.0031939110505450944,-6.245607909182642e-06
0.702,0.0,-6.11053038227558e-06
0.703,0.01596955525272547,-5.968521146257964e-06
0.704,0.025551288404360755,-5.826266076330019e-06
0.705,0.02235737735381566,-5.681326599492725e-06
0.706,0.012775644202180378,-5.539325109861515e-06
0.707,0.006387822101090189,-5.418336794386402e-06
0.708,-0.012775644202180378,-5.307084493653384e-06
0.709,-0.02235737735381566,-5.1985603951772316e-06
0.71,-0.028745199454905845,-5.094030552017763e-06
0.711,-0.04152084365708622,-4.9912177027529545e-06
0.712,-0.04471475470763132,-4.8895130565463645e-06
0.713,-0.060684309960356786,-4.7915936997023505e-06
0.714,-0.05429648785926659,-4.694118252204491e-06
0.715,-0.038326932606541124,-4.588368124772398e-06
0.716,-0.03193911050545094,-4.479651892308849e-06
0.717,-0.012775644202180378,-4.371461934800153e-06
0.718,0.0031939110505450944,-4.262924604215788e-06
0.719,0.02235737735381566,-4.154767473909499e-06
0.72,0.028745199454905845,-4.047573129715944e-06
0.721,0.03193911050545094,-3.939239522765079e-06
0.722,0.038326932606541124,-3.832119765857728e-06
0.723,0.038326932606541124,-3.732124927942606e-06
0.724,0.019163466303270562,-3.6350002611318203e-06
0.725,0.0031939110505450944,-3.5404644157094125e-06
0.726,-0.01596955525272547,-3.446947524784622e-06
0.727,-0.03193911050545094,-3.348724479438572e-06
0.728,-0.028745199454905845,-3.2496851240739737e-06
0.729,-0.047908665758176414,-3.149787377642395e-06
0.73,-0.047908665758176414,-3.0501125549367103e-06
0.731,-0.038326932606541124,-2.957565607585433e-06
0.732,-0.025551288404360755,-2.8677525215966592e-06
0.733,-0.01596955525272547,-2.7738371295450576e-06
0.734,0.0,-2.679055238725029e-06
0.735,0.006387822101090189,-2.5897049887170124e-06
0.736,0.01596955525272547,-2.4982709322916714e-06
0.737,0.01596955525272547,-2.4082277711140243e-06
0.738,0.03193911050545094,-2.3126937782096423e-06
0.739,0.025551288404360755,-2.1894872168262867e-06
0.74,0.02235737735381566,-2.0526270629155335e-06
0.741,0.009581733151635281,-1.9113479494249005e-06
0.742,0.0031939110505450944,-1.7638738412126674e-06
0.743,-0.02235737735381566,-1.6122572244225132e-06
0.744,-0.035133021555996034,-1.4582140206970752e-06
0.745,-0.03193911050545094,-1.2983405770663282e-06
0.746,-0.04471475470763132,-1.1374495054789724e-06
0.747,-0.05110257680872151,-9.885078167362767e-07
0.748,-0.047908665758176414,-8.437941279826653e-07
0.749,-0.035133021555996034,-6.979203480430551e-07
0.75,-0.01596955525272547,-5.52534091689277e-07
0.751,0.0031939110505450944,-4.072334615686859e-07
0.752,0.006387822101090189,-2.6066625092591503e-07
0.753,0.006387822101090189,-1.1650126798064052e-07
0.754,0.012775644202180378,2.9312054403703412e-08
0.755,0.01596955525272547,1.872984668677346e-07
0.756,0.01596955525272547,3.4965502158175865e-07
0.757,0.0031939110505450944,5.159716063843031e-07
0.758,-0.012775644202180378,6.831220806082764e-07
0.759,-0.028745199454905845,8.402689419857952e-07
0.76,-0.035133021555996034,9.946940341423917e-07
0.761,-0.04152084365708622,1.1459349801059608e-06
0.762,-0.047908665758176414,1.2962207346338045e-06
0.763,-0.047908665758176414,1.4590716149687989e-06
0.764,-0.047908665758176414,1.62557405174154e-06
0.765,-0.04152084365708622,1.7831846488000547e-06
0.766,-0.03193911050545094,1.93734665212487e-06
0.767,-0.009581733151635281,2.098070488908759e-06
0.768,0.0031939110505450944,2.252432504618395e-06
0.769,0.006387822101090189,2.407169670889262e-06
0.77,0.006387822101090189,2.5494024681148748e-06
0.771,0.01596955525272547,2.639485697913641e-06
0.772,0.012775644202180378,2.7027233052299658e-06
0.773,0.019163466303270562,2.7524606591546865e-06
0.774,0.0031939110505450944,2.7879322076603076e-06
0.775,-0.0031939110505450944,2.8190953681687306e-06
0.776,-0.019163466303270562,2.8431784097244017e-06
0.777,-0.03193911050545094,2.855494806860635e-06
0.778,-0.047908665758176414,2.860952587307159e-06
0.779,-0.04471475470763132,2.868506432512466e-06
0.78,-0.05429648785926659,2.8731072885009444e-06
0.781,-0.04471475470763132,2.8743013702049475e-06
0.782,-0.028745199454905845,2.8712768379582417e-06
0.783,-0.012775644202180378,2.8587280055795705e-06
0.784,0.0031939110505450944,2.8412269176008904e-06
0.785,0.012775644202180378,2.818945225241411e-06
0.786,0.019163466303270562,2.7939788560489333e-06
0.787,0.02235737735381566,2.774087883842069e-06
0.788,0.035133021555996034,2.7548090646729056e-06
0.789,0.028745199454905845,2.732766216791659e-06
0.79,0.009581733151635281,2.7091786575158437e-06
0.791,0.0031939110505450944,2.6846024983891316e-06
0.792,-0.006387822101090189,2.657784721236485e-06
0.793,-0.01596955525272547,2.6302387268815096e-06
0.794,-0.03193911050545094,2.6000948469313056e-06
0.795,-0.035133021555996034,2.5611184528784133e-06
0.796,-0.035133021555996034,2.517372512913747e-06
0.797,-0.05429648785926659,2.4726949238217867e-06
0.798,-0.04471475470763132,2.425859219129548e-06
0.799,-0.03193911050545094,2.3755745348471205e-06
0.8,-0.01596955525272547,2.3244013380296687e-06
0.801,-0.0031939110505450944,2.2704425414289798e-06
0.802,0.012775644202180378,2.2169560863029005e-06
0.803,0.006387822101090189,2.1733321762647366e-06
0.804,0.009581733151635281,2.133604974250263e-06
0.805,0.006387822101090189,2.0950833576833965e-06
0.806,0.0,2.057664544816852e-06
0.807,-0.012775644202180378,2.01819899933643e-06
0.808,-0.012775644202180378,1.9781545682141557e-06
0.809,-0.025551288404360755,1.938490627899233e-06
0.81,-0.03193911050545094,1.8985753683250232e-06
0.811,-0.038326932606541124,1.858221924385791e-06
0.812,-0.04471475470763132,1.8174982345950943e-06
0.813,-0.05110257680872151,1.775319135554484e-06
0.814,-0.05110257680872151,1.7324210991898865e-06
0.815,-0.047908665758176414,1.6907269951449512e-06
0.816,-0.03193911050545094,1.6482462455831492e-06
0.817,-0.01596955525272547,1.6058224985221683e-06
0.818,-0.0031939110505450944,1.561751654745113e-06
0.819,0.0031939110505450944,1.5106691142836046e-06
0.82,0.0031939110505450944,1.456131432569543e-06
0.821,0.019163466303270562,1.3995725182309492e-06
0.822,0.019163466303270562,1.3412874910352616e-06
0.823,0.006387822101090189,1.2836074766683243e-06
0.824,-0.006387822101090189,1.2253764581793496e-06
0.825,-0.019163466303270562,1.1661521770204542e-06
0.826,-0.025551288404360755,1.1061906901973115e-06
0.827,-0.038326932606541124,1.0448243596752425e-06
0.828,-0.04471475470763132,9.825746906139032e-07
0.829,-0.05110257680872151,9.209375092651489e-07
0.83,-0.060684309960356786,8.591379352503565e-07
0.831,-0.047908665758176414,7.953085317292867e-07
0.832,-0.035133021555996034,7.315672453316204e-07
0.833,-0.025551288404360755,6.671415253936423e-07
0.834,0.0031939110505450944,6.038120121163188e-07
0.835,0.006387822101090189,5.473042886950433e-07
0.836,0.009581733151635281,4.940457700778975e-07
0.837,0.019163466303270562,4.4181561835277515e-07
0.838,0.035133021555996034,3.9101511912517516e-07
0.839,0.025551288404360755,3.409239027786915e-07
0.84,0.025551288404360755,2.913476634365708e-07
0.841,0.01596955525272547,2.431344536882113e-07
0.842,0.0,1.952247894633081e-07
0.843,-0.025551288404360755,1.448536594101526e-07
0.844,-0.038326932606541124,9.370420682711698e-08
0.845,-0.047908665758176414,4.2884395007537725e-08
0.846,-0.047908665758176414,-7.883602222680776e-09
0.847,-0.05110257680872151,-5.8370630156156044e-08
0.848,-0.035133021555996034,-1.0839087623484904e-07
0.849,-0.019163466303270562,-1.5861177736382233e-07
0.85,-0.009581733151635281,-2.0828625448033e-07
0.851,0.0031939110505450944,-2.5553646525561587e-07
0.852,0.02235737735381566,-3.0171433115852603e-07
0.853,0.02235737735381566,-3.469103662857659e-07
0.854,0.025551288404360755,-3.916228359868019e-07
0.855,0.019163466303270562,-4.3766901482888516e-07
0.856,0.012775644202180378,-4.838149577875286e-07
0.857,-0.009581733151635281,-5.300739542265434e-07
0.858,-0.02235737735381566,-5.761036168178104e-07
0.859,-0.035133021555996034,-6.197143375783595e-07
0.86,-0.04471475470763132,-6.623000015356038e-07
0.861,-0.05749039890981169,-7.060296351647254e-07
0.862,-0.060684309960356786,-7.498768946523293e-07
0.863,-0.06707213206144698,-7.918435411325531e-07
0.864,-0.060684309960356786,-8.343145049371402e-07
0.865,-0.04152084365708622,-8.761877662539743e-07
0.866,-0.025551288404360755,-9.196469755425997e-07
0.867,-0.0031939110505450944,-9.717301612225725e-07
0.868,0.0031939110505450944,-1.027989776006599e-06
0.869,0.02235737735381566,-1.0854960190640339e-06
0.87,0.028745199454905845,-1.1448128412083597e-06
0.871,0.02235737735381566,-1.2052897326676413e-06
0.872,0.025551288404360755,-1.2663822310789184e-06
0.873,0.019163466303270562,-1.329170633985029e-06
0.874,0.009581733151635281,-1.3921281009508924e-06
0.875,-0.0031939110505450944,-1.4511399597134486e-06
0.876,-0.02235737735381566,-1.5086568675317012e-06
0.877,-0.02235737735381566,-1.5663891844691363e-06
0.878,-0.035133021555996034,-1.623814264497172e-06
0.879,-0.04152084365708622,-1.6810597049256277e-06
0.88,-0.04152084365708622,-1.7385552228625976e-06
0.881,-0.035133021555996034,-1.7951367144118996e-06
0.882,-0.038326932606541124,-1.8520901943377318e-06
0.883,-0.01596955525272547,-1.9127567559907288e-06
0.884,0.0,-1.974659946999314e-06
0.885,0.006387822101090189,-2.037669828863962e-06
0.886,0.009581733151635281,-2.1007945231218304e-06
0.887,0.019163466303270562,-2.1605945549773126e-06
0.888,0.019163466303270562,-2.2193814683816667e-06
0.889,0.019163466303270562,-2.277008848737477e-06
0.89,0.01596955525272547,-2.3341844590498645e-06
0.891,-0.0031939110505450944,-2.3951998257236796e-06
0.892,-0.012775644202180378,-2.4572261850536815e-06
0.893,-0.02235737735381566,-2.516282772441163e-06
0.894,-0.035133021555996034,-2.5740974903353916e-06
0.895,-0.04471475470763132,-2.633847721010843e-06
0.896,-0.047908665758176414,-2.691432066826539e-06
0.897,-0.05749039890981169,-2.748989134581272e-06
0.898,-0.047908665758176414,-2.8024314242132085e-06
0.899,-0.028745199454905845,-2.8391764653034715e-06
0.9,-0.01596955525272547,-2.867255727447858e-06
0.901,0.0,-2.890904795768436e-06
0.902,0.0031939110505450944,-2.9098706516899535e-06
0.903,0.009581733151635281,-2.927350900113587e-06
0.904,0.01596955525272547,-2.942457972436066e-06
0.905,0.025551288404360755,-2.953516812689995e-06
0.906,0.012775644202180378,-2.962250758462229e-06
0.907,-0.006387822101090189,-2.9717478920221473e-06
0.908,-0.012775644202180378,-2.9801031972830535e-06
0.909,-0.025551288404360755,-2.9877660273082786e-06
0.91,-0.04471475470763132,-2.9938917077314955e-06
0.911,-0.047908665758176414,-2.995080160566679e-06
0.912,-0.05429648785926659,-2.9941517985728826e-06
0.913,-0.05749039890981169,-2.9913383092150214e-06
0.914,-0.047908665758176414,-2.9876255977569095e-06
0.915,-0.04471475470763132,-2.9880280221945607e-06
0.916,-0.025551288404360755,-2.989893220460366e-06
0.917,-0.006387822101090189,-2.988277931194315e-06
0.918,0.01596955525272547,-2.9861202259452634e-06
0.919,0.025551288404360755,-2.9892160330809367e-06
0.92,0.02235737735381566,-2.9916587237420516e-06
0.921,0.035133021555996034,-2.9961478667918273e-06
0.922,0.025551288404360755,-2.9978132627883445e-06
0.923,0.012775644202180378,-2.9795133192194215e-06
0.924,0.012775644202180378,-2.9523503090054087e-06
0.925,-0.0031939110505450944,-2.925330454129775e-06
0.926,-0.01596955525272547,-2.895895475371539e-06
0.927,-0.025551288404360755,-2.8636450452382215e-06
0.928,-0.047908665758176414,-2.8328269980596003e-06
0.929,-0.05429648785926659,-2.796158672880855e-06
0.93,-0.05429648785926659,-2.7631194370366244e-06
0.931,-0.04471475470763132,-2.7564963498917957e-06
0.932,-0.035133021555996034,-2.759486454026292e-06
0.933,-0.02235737735381566,-2.776798374062579e-06
0.934,-0.006387822101090189,-2.7980009314616967e-06
0.935,0.009581733151635281,-2.789696151861273e-06
0.936,0.009581733151635281,-2.7775199287425548e-06
0.937,0.01596955525272547,-2.75836324060255e-06
0.938,0.02235737735381566,-2.7435328980109947e-06
0.939,0.025551288404360755,-2.7861415673400795e-06
0.94,0.019163466303270562,-2.852649102155647e-06
0.941,-0.009581733151635281,-2.901383581656163e-06
0.942,-0.009581733151635281,-2.950343193235134e-06
0.943,-0.03193911050545094,-3.0282531483476835e-06
0.944,-0.038326932606541124,-3.096587760553162e-06
0.945,-0.04152084365708622,-3.1808048802137865e-06
0.946,-0.05110257680872151,-3.238144258087824e-06
0.947,-0.05749039890981169,-3.140598667114067e-06
0.948,-0.04471475470763132,-2.972925143290534e-06
0.949,-0.025551288404360755,-2.7693603179827984e-06
0.95,-0.006387822101090189,-2.5366481341026035e-06
0.951,0.01596955525272547,-2.3306754950069627e-06
0.952,0.012775644202180378,-2.123878730532696e-06
0.953,0.006387822101090189,-1.902781202612588e-06
0.954,0.01596955525272547,-1.676032650790862e-06
0.955,0.025551288404360755,-1.4318040481650758e-06
0.956,0.02235737735381566,-1.177638711891707e-06
0.957,0.01596955525272547,-9.577591509433542e-07
0.958,0.006387822101090189,-7.449257814086285e-07
0.959,-0.0031939110505450944,-4.6891040877822886e-07
0.96,-0.019163466303270562,-2.0049835978587752e-07
0.961,-0.03193911050545094,7.593086730945585e-08
0.962,-0.04471475470763132,3.1346253331950605e-07
0.963,-0.04152084365708622,3.3815454200152017e-07
0.964,-0.038326932606541124,2.5323740697771295e-07
0.965,-0.03193911050545094,1.6975778687508741e-07
0.966,-0.03193911050545094,4.012355560982333e-08
0.967,-0.01596955525272547,-2.0468664965101495e-07
0.968,-0.012775644202180378,-4.7659115795899977e-07
0.969,-0.006387822101090189,-8.225291041429793e-07
0.97,0.0031939110505450944,-1.1586166635035433e-06
0.971,0.0,-1.1991154099367828e-06
0.972,0.006387822101090189,-1.1213185210634628e-06
0.973,0.0031939110505450944,-1.0897075297092211e-06
0.974,0.009581733151635281,-1.0443663439820838e-06
0.975,-0.012775644202180378,-9.307347402800875e-07
0.976,-0.025551288404360755,-8.529301108993283e-07
0.977,-0.04152084365708622,-7.004691172599027e-07
0.978,-0.04471475470763132,-6.296697046515481e-07
0.979,-0.05429648785926659,-1.0731723612987307e-06
0.98,-0.05749039890981169,-1.730633849617954e-06
0.981,-0.05429648785926659,-2.548304542043553e-06
0.982,-0.047908665758176414,-3.445593416606794e-06
0.983,-0.038326932606541124,-4.09077170158929e-06
0.984,-0.01596955525272547,-4.699315825977143e-06
0.985,-0.006387822101090189,-5.277970996243399e-06
0.986,-0.01596955525272547,-5.87554676954677e-06
0.987,-0.0031939110505450944,-6.840683411657005e-06
0.988,0.006387822101090189,-7.946470449515781e-06
0.989,0.006387822101090189,-8.85022313683818e-06
0.99,0.0031939110505450944,-9.709000751787092e-06
0.991,-0.012775644202180378,-1.0821093502848063e-05
0.992,-0.025551288404360755,-1.1816716460772042e-05
0.993,-0.03193911050545094,-1.2886252609534452e-05
0.994,-0.04152084365708622,-1.366861804296858e-05
0.995,-0.047908665758176414,-1.3041862769173122e-05
0.996,-0.047908665758176414,-1.172673936728041e-05
0.997,-0.04152084365708622,-1.0105365789922026e-05
0.998,-0.035133021555996034,-8.158110694525371e-06
0.999,-0.01596955525272547,-6.170228098235994e-06
1.0,-0.006387822101090189,-4.066850483552628e-06
1.001,0.006387822101090189,-1.7119964740413532e-06
1.002,0.019163466303270562,7.465516033894643e-07
1.003,0.028745199454905845,3.0417326776893327e-06
1.004,0.03193911050545094,5.324687606438419e-06
1.005,0.04471475470763132,7.5895138198733056e-06
1.006,0.02235737735381566,9.873172596062934e-06
1.007,0.01596955525272547,1.2373674840909746e-05
1.008,-0.0031939110505450944,1.4918927704169109e-05
1.009,-0.01596955525272547,1.749465548376583e-05
1.01,-0.028745199454905845,2.0030787594680347e-05
1.011,-0.035133021555996034,2.2233327989905694e-05
1.012,-0.047908665758176414,2.425933182506702e-05
1.013,-0.038326932606541124,2.6316518932870443e-05
1.014,-0.03193911050545094,2.829040803695354e-05
1.015,-0.019163466303270562,2.999088773941487e-05
1.016,-0.0031939110505450944,3.1617436356956474e-05
1.017,0.01596955525272547,3.305812857124032e-05
1.018,0.02235737735381566,3.4491256948211866e-05
1.019,0.025551288404360755,3.6547086222926545e-05
1.02,0.012775644202180378,3.8812170298383204e-05
1.021,0.012775644202180378,4.0938580798990485e-05
1.022,0.019163466303270562,4.302468265542368e-05
1.023,0.012775644202180378,4.510721664802131e-05
1.024,0.009581733151635281,4.7004080353829025e-05
1.025,0.0031939110505450944,4.896768926142622e-05
1.026,-0.02235737735381566,5.064671538802166e-05
1.027,-0.028745199454905845,5.116844231706699e-05
1.028,-0.04152084365708622,5.115213060938345e-05
1.029,-0.05110257680872151,5.0509336669850364e-05
1.03,-0.060684309960356786,4.955081745775688e-05
1.031,-0.05749039890981169,4.933150187701045e-05
1.032,-0.04152084365708622,4.9055060040569606e-05
1.033,-0.03193911050545094,4.880104716602193e-05
1.034,-0.012775644202180378,4.823446818413072e-05
1.035,0.0031939110505450944,4.576124308430732e-05
1.036,0.006387822101090189,4.239170101978616e-05
1.037,0.006387822101090189,3.9358449336476215e-05
1.038,0.009581733151635281,3.613581704475971e-05
1.039,0.009581733151635281,3.190915247046483e-05
1.04,0.0031939110505450944,2.7797966748444114e-05
1.041,-0.012775644202180378,2.301492212526925e-05
1.042,-0.019163466303270562,1.88508875647705e-05
1.043,-0.028745199454905845,1.910371205095478e-05
1.044,-0.03193911050545094,2.1232036762380106e-05
1.045,-0.04152084365708622,2.4371598364452544e-05
1.046,-0.04471475470763132,2.8188673067019964e-05
1.047,-0.05110257680872151,3.0694247812032865e-05
1.048,-0.04471475470763132,3.2998347687113216e-05
1.049,-0.028745199454905845,3.5401081072617114e-05
1.05,-0.019163466303270562,3.7844479915966016e-05
1.051,0.006387822101090189,4.142872166709328e-05
1.052,0.012775644202180378,4.543880857712233e-05
1.053,0.019163466303270562,4.8145004531595545e-05
1.054,0.02235737735381566,5.047764465506118e-05
1.055,0.02235737735381566,5.4564801897313784e-05
1.056,0.012775644202180378,5.808383715676963e-05
1.057,0.006387822101090189,6.183791671957308e-05
1.058,0.0,6.397933586760852e-05
1.059,-0.02235737735381566,5.824180135777227e-05
1.06,-0.02235737735381566,4.849666108430577e-05
1.061,-0.035133021555996034,3.782603373198826e-05
1.062,-0.038326932606541124,2.530872659581453e-05
1.063,-0.04471475470763132,1.046314581912318e-05
1.064,-0.05110257680872151,-5.304867067628104e-06
1.065,-0.038326932606541124,-2.3194739574608978e-05
1.066,-0.012775644202180378,-4.1293875373697444e-05
1.067,0.006387822101090189,-5.368606605366251e-05
1.068,0.012775644202180378,-6.397522148342951e-05
1.069,0.02235737735381566,-7.525069841902319e-05
1.07,0.02235737735381566,-8.641886957815536e-05
1.071,0.02235737735381566,-9.673589940494362e-05
1.072,0.025551288404360755,-0.00010786205286987943
1.073,0.012775644202180378,-0.00011776808842810107
1.074,0.01596955525272547,-0.000129171317395622
1.075,0.0,-0.00014960061561737831
1.076,-0.0031939110505450944,-0.00017378912960553845
1.077,-0.019163466303270562,-0.00020066916813406307
1.078,-0.028745199454905845,-0.00022888434147482823
1.079,-0.04152084365708622,-0.0002528006342128652
1.08,-0.047908665758176414,-0.00027597026831567334
1.081,-0.04152084365708622,-0.0002985837155258236
1.082,-0.035133021555996034,-0.0003212978930541309
1.083,-0.012775644202180378,-0.0003496479640924304
1.084,-0.0031939110505450944,-0.0003800115299406275
1.085,0.009581733151635281,-0.0004064875597527791
1.086,0.009581733151635281,-0.00043184852247854456
1.087,0.012775644202180378,-0.00046164752561777254
1.088,0.01596955525272547,-0.0004892068663202843
1.089,0.012775644202180378,-0.0005175672973163931
1.09,0.01596955525272547,-0.0005405935889143794
1.091,0.0031939110505450944,-0.0005387363123348416
1.092,-0.009581733151635281,-0.0005243436634178505
1.093,-0.025551288404360755,-0.0005050974789393731
1.094,-0.035133021555996034,-0.0004797320060132869
1.095,-0.04471475470763132,-0.0004508673757612996
1.096,-0.05110257680872151,-0.0004192098971740037
1.097,-0.05429648785926659,-0.00038193463975452334
1.098,-0.047908665758176414,-0.00034275173449666225
1.099,-0.038326932606541124,-0.0003111389763112035
1.1,-0.028745199454905845,-0.0002814587505689334
1.101,-0.012775644202180378,-0.0002501404385378518
1.102,-0.019163466303270562,-0.00021813646017256137
1.103,-0.01596955525272547,-0.00018453917486252044
1.104,-0.009581733151635281,-0.00014900052465007037
1.105,-0.009581733151635281,-0.00011386372652701638
1.106,-0.0031939110505450944,-7.676999492751598e-05
1.107,-0.01596955525272547,-3.185532556184953e-05
1.108,-0.012775644202180378,1.6435303021081532e-05
1.109,-0.04152084365708622,6.812608058429437e-05
1.11,-0.05429648785926659,0.00012119744110375109
1.111,-0.047908665758176414,0.00016892073455049275
1.112,-0.05749039890981169,0.00021589139557609386
1.113,-0.060684309960356786,0.00026174326364469016
1.114,-0.05749039890981169,0.0003079725962465031
1.115,-0.047908665758176414,0.00036337268212866057
1.116,-0.028745199454905845,0.00042218465160236943
1.117,-0.01596955525272547,0.00047625267048201586
1.118,0.0031939110505450944,0.0005291515907782368
1.119,0.006387822101090189,0.0005875006884987442
1.12,0.019163466303270562,0.0006428591002460033
1.121,0.03193911050545094,0.0006995017624789565
1.122,0.025551288404360755,0.0007491666380582282
1.123,0.019163466303270562,0.0007661548592751475
1.124,0.006387822101090189,0.0007667954119209909
1.125,0.0031939110505450944,0.000760304065692816
1.126,-0.012775644202180378,0.0007457204921816913
1.127,-0.02235737735381566,0.0007283084155516086
1.128,-0.019163466303270562,0.0007073411823599385
1.129,-0.028745199454905845,0.0006795098285107472
1.13,-0.03193911050545094,0.0006486606792051401
1.131,-0.025551288404360755,0.0006232172756526275
1.132,-0.025551288404360755,0.0005982705704810152
1.133,-0.019163466303270562,0.0005717930302987465
1.134,-0.009581733151635281,0.0005439510660801733
1.135,-0.0031939110505450944,0.000512174954266702
1.136,0.009581733151635281,0.0004780854729986759
1.137,0.006387822101090189,0.00044296101942033027
1.138,0.006387822101090189,0.00040640112297289193
1.139,0.009581733151635281,0.00036842965618904964
1.14,0.009581733151635281,0.0003295836398284716
1.141,0.0031939110505450944,0.0002884935431960679
1.142,-0.009581733151635281,0.0002466982035892203
1.143,-0.025551288404360755,0.00020793676554033898
1.144,-0.03193911050545094,0.0001692941620082703
1.145,-0.04152084365708622,0.00013156595784451862
1.146,-0.04471475470763132,9.320888647980665e-05
1.147,-0.05429648785926659,4.710942516343747e-05
1.148,-0.05110257680872151,-2.0890245091530988e-06
1.149,-0.038326932606541124,-4.860408289650297e-05
1.15,-0.028745199454905845,-9.478830178942749e-05
1.151,-0.012775644202180378,-0.00014458117645903447
1.152,0.0,-0.00019258489508056803
1.153,-0.0031939110505450944,-0.00024180966478828126
1.154,0.0,-0.00028664122979714076
1.155,0.009581733151635281,-0.00030994551653261226
1.156,-0.0031939110505450944,-0.00032263204825577806
1.157,-0.0031939110505450944,-0.0003304961442348245
1.158,-0.009581733151635281,-0.0003331580829518523
1.159,-0.025551288404360755,-0.00033481144098240003
1.16,-0.038326932606541124,-0.000334330935686267
1.161,-0.05110257680872151,-0.00032965999460807737
1.162,-0.05110257680872151,-0.0003229567955836742
1.163,-0.04471475470763132,-0.0003182804940871585
1.164,-0.04152084365708622,-0.00031331124259646867
1.165,-0.025551288404360755,-0.0003076996108736951
1.166,-0.01596955525272547,-0.000301141179897747
1.167,-0.025551288404360755,-0.0002914128716327224
1.168,0.0031939110505450944,-0.00028036090466243064
1.169,0.019163466303270562,-0.0002681374584907419
1.17,0.019163466303270562,-0.00025549418236358034
1.171,0.028745199454905845,-0.0002453569615295827
1.172,0.028745199454905845,-0.00023606480002738098
1.173,0.02235737735381566,-0.00022623948775667797
1.174,0.019163466303270562,-0.00021643553637914402
1.175,-0.0031939110505450944,-0.00020710609663872302
1.176,-0.01596955525272547,-0.00019757152326797624
1.177,-0.02235737735381566,-0.00018844215618479818
1.178,-0.04471475470763132,-0.0001789027039692152
1.179,-0.07345995416253714,-0.0001661154612307844
1.18,-0.06387822101090188,-0.00015190995689775443
1.181,-0.06387822101090188,-0.0001381343562100762
1.182,-0.04471475470763132,-0.00012413932842391117
1.183,-0.025551288404360755,-0.00010911027606664292
1.184,-0.006387822101090189,-9.441004638971313e-05
1.185,0.006387822101090189,-7.911469507645588e-05
1.186,0.012775644202180378,-6.483355083226169e-05
1.187,0.02235737735381566,-5.633661660533277e-05
1.188,0.025551288404360755,-5.058766790824529e-05
1.189,0.02235737735381566,-4.6052597578012666e-05
1.19,0.019163466303270562,-4.2784836410649104e-05
1.191,0.009581733151635281,-3.947524029985331e-05
1.192,-0.012775644202180378,-3.65772400301002e-05
1.193,-0.01596955525272547,-3.463383948307119e-05
1.194,-0.025551288404360755,-3.313553663889773e-05
1.195,-0.03193911050545094,-3.1290152914786546e-05
1.196,-0.028745199454905845,-2.9541848489972517e-05
1.197,-0.025551288404360755,-2.777921669907298e-05
1.198,-0.019163466303270562,-2.6177161935250477e-05
1.199,-0.02235737735381566,-2.546060066443053e-05
1.2,-0.012775644202180378,-2.4960597127378995e-05
1.201,-0.0031939110505450944,-2.4788529497005802e-05
1.202,-0.006387822101090189,-2.4522262078167423e-05
1.203,0.0031939110505450944,-2.2738431175346073e-05
1.204,0.0031939110505450944,-2.0329723143164142e-05
1.205,0.006387822101090189,-1.7769016374810893e-05
1.206,0.0031939110505450944,-1.5015119551309801e-05
1.207,-0.0031939110505450944,-1.240075885027958e-05
1.208,-0.02235737735381566,-9.829388537780483e-06
1.209,-0.035133021555996034,-7.125327508375768e-06
1.21,-0.047908665758176414,-4.458430852322122e-06
1.211,-0.06387822101090188,-2.16209314793814e-06
1.212,-0.06387822101090188,-3.539825181903087e-08
1.213,-0.07345995416253714,1.9764926424839945e-06
1.214,-0.06707213206144698,3.893342035957871e-06
1.215,-0.05749039890981169,5.872151630416894e-06
1.216,-0.038326932606541124,7.798907088316832e-06
1.217,-0.01596955525272547,9.66760411837316e-06
1.218,0.0,1.1437284635508659e-05
1.219,0.009581733151635281,1.2941200677650226e-05
1.22,0.019163466303270562,1.4288193775022688e-05
1.221,0.03193911050545094,1.552652087456531e-05
1.222,0.028745199454905845,1.6661011448431743e-05
1.223,0.03193911050545094,1.7753288885069462e-05
1.224,0.019163466303270562,1.8775551070428878e-05
1.225,0.0031939110505450944,1.9712865186878758e-05
1.226,-0.012775644202180378,2.0576410962286083e-05
1.227,-0.028745199454905845,2.136376730201828e-05
1.228,-0.028745199454905845,2.2079863979951462e-05
1.229,-0.04471475470763132,2.2751362995748277e-05
1.23,-0.047908665758176414,2.336417852291659e-05
1.231,-0.04152084365708622,2.3881462839043137e-05
1.232,-0.03193911050545094,2.4345644917527962e-05
1.233,-0.009581733151635281,2.4739992694787664e-05
1.234,-0.0031939110505450944,2.510210763332178e-05
1.235,0.009581733151635281,2.5546610234191733e-05
1.236,0.01596955525272547,2.6000312212156554e-05
1.237,0.028745199454905845,2.6433426840829232e-05
1.238,0.03193911050545094,2.6842320408675284e-05
1.239,0.04152084365708622,2.7181828062082295e-05
1.24,0.03193911050545094,2.7475708044970928e-05
1.241,0.025551288404360755,2.7735984143008692e-05
1.242,0.009581733151635281,2.7956993171038626e-05
1.243,-0.01596955525272547,2.8148252233175873e-05
1.244,-0.035133021555996034,2.830464255994254e-05
1.245,-0.028745199454905845,2.8398089271578768e-05
1.246,-0.04152084365708622,2.8446801312956088e-05
1.247,-0.05110257680872151,2.8494954472390127e-05
1.248,-0.04152084365708622,2.8498280795808423e-05
1.249,-0.025551288404360755,2.8471715094659864e-05
1.25,-0.02235737735381566,2.838203523700776e-05
1.251,-0.009581733151635281,2.811307802837839e-05
1.252,-0.0031939110505450944,2.7738234658928832e-05
1.253,-0.0031939110505450944,2.7315557674646363e-05
1.254,0.012775644202180378,2.6829201915030093e-05
1.255,0.01596955525272547,2.6272276611287185e-05
1.256,0.0031939110505450944,2.567102705986344e-05
1.257,0.0031939110505450944,2.5003965849435127e-05
1.258,-0.012775644202180378,2.4307440545412118e-05
1.259,-0.025551288404360755,2.369095771778928e-05
1.26,-0.038326932606541124,2.308916884417465e-05
1.261,-0.05110257680872151,2.2447766580876028e-05
1.262,-0.05110257680872151,2.1786644460150882e-05
1.263,-0.05429648785926659,2.1117314028501317e-05
1.264,-0.05429648785926659,2.0412976773408173e-05
1.265,-0.04471475470763132,1.9711716698381518e-05
1.266,-0.028745199454905845,1.896579802556272e-05
1.267,0.0,1.804385315154683e-05
1.268,0.012775644202180378,1.7040299821636864e-05
1.269,0.02235737735381566,1.5969539172677648e-05
1.27,0.025551288404360755,1.4860998231604849e-05
1.271,0.04152084365708622,1.3826213767243032e-05
1.272,0.028745199454905845,1.2793478290650181e-05
1.273,0.028745199454905845,1.1763668957346188e-05
1.274,0.019163466303270562,1.071940426181449e-05
1.275,-0.0031939110505450944,9.538425788056693e-06
1.276,-0.012775644202180378,8.30217185987919e-06
1.277,-0.028745199454905845,7.130477014987061e-06
1.278,-0.047908665758176414,5.970681738409678e-06
1.279,-0.05110257680872151,4.7228150790868955e-06
1.28,-0.04471475470763132,3.514339031864476e-06
1.281,-0.047908665758176414,2.2810654658733406e-06
1.282,-0.038326932606541124,1.14799438696649e-06
1.283,-0.025551288404360755,5.008495690102121e-07
1.284,-0.009581733151635281,9.4049391781878e-08
1.285,0.0,-2.0302543073622987e-07
1.286,0.006387822101090189,-3.817061726276577e-07
1.287,0.009581733151635281,-5.360854127310467e-07
1.288,0.025551288404360755,-6.411185165173901e-07
1.289,0.019163466303270562,-6.504404191347918e-07
1.29,0.01596955525272547,-6.128148130119775e-07
1.291,0.0031939110505450944,-6.203199898781642e-07
1.292,-0.019163466303270562,-6.203018678746588e-07
1.293,-0.038326932606541124,-6.044289726940776e-07
1.294,-0.047908665758176414,-5.660422224712059e-07
1.295,-0.05429648785926659,-4.553489447109894e-07
1.296,-0.05749039890981169,-3.13541920664042e-07
1.297,-0.05110257680872151,-1.4435885118888072e-07
1.298,-0.038326932606541124,3.5747721529946975e-08
1.299,-0.028745199454905845,1.6226778019324139e-07
1.3,-0.012775644202180378,2.7166400021607063e-07
1.301,0.0,3.9469838790665616e-07
1.302,0.0,5.187139701890516e-07
1.303,0.009581733151635281,6.326699580562422e-07
1.304,0.012775644202180378,7.523614715585358e-07
1.305,0.019163466303270562,8.641195946993662e-07
1.306,0.02235737735381566,9.8633541461114e-07
1.307,0.019163466303270562,1.1835363875826263e-06
1.308,0.0031939110505450944,1.41410788652625e-06
1.309,-0.01596955525272547,1.635650943620951e-06
1.31,-0.04152084365708622,1.8631706112618183e-06
1.311,-0.04152084365708622,2.1158282936779874e-06
1.312,-0.05110257680872151,2.3619836442237945e-06
1.313,-0.060684309960356786,2.6228325261204537e-06
1.314,-0.05749039890981169,2.8613047900518484e-06
1.315,-0.05110257680872151,2.967295612446356e-06
1.316,-0.04471475470763132,3.0108613010071167e-06
1.317,-0.019163466303270562,3.027675877522766e-06
1.318,0.0031939110505450944,3.0162969995501035e-06
1.319,0.012775644202180378,3.006404425648825e-06
1.32,0.02235737735381566,2.9880234775839076e-06
1.321,0.025551288404360755,2.948494250819875e-06
1.322,0.038326932606541124,2.899889347618556e-06
1.323,0.035133021555996034,2.861701546370152e-06
1.324,0.025551288404360755,2.8229257925772153e-06
1.325,0.0031939110505450944,2.785360815716815e-06
1.326,-0.012775644202180378,2.7452734625652686e-06
1.327,-0.02235737735381566,2.6862852089346265e-06
1.328,-0.038326932606541124,2.6232635211105065e-06
1.329,-0.04152084365708622,2.554178759690803e-06
1.33,-0.05110257680872151,2.487983358439281e-06
1.331,-0.047908665758176414,2.455317056662704e-06
1.332,-0.038326932606541124,2.4371114320759504e-06
1.333,-0.028745199454905845,2.422725485423695e-06
1.334,-0.025551288404360755,2.4135231891447046e-06
1.335,-0.0031939110505450944,2.4035205787065795e-06
1.336,-0.0031939110505450944,2.393842351256891e-06
1.337,0.012775644202180378,2.388521419205844e-06
1.338,0.028745199454905845,2.383375239756108e-06
1.339,0.028745199454905845,2.368904547495377e-06
1.34,0.019163466303270562,2.3509296083048896e-06
1.341,0.0031939110505450944,2.3324320117412407e-06
1.342,-0.012775644202180378,2.3131019609886266e-06
1.343,-0.03193911050545094,2.2951494562857064e-06
1.344,-0.04152084365708622,2.2777453327910614e-06
1.345,-0.04152084365708622,2.2597632376153786e-06
1.346,-0.06387822101090188,2.2420858603943413e-06
1.347,-0.05749039890981169,2.2264416077373505e-06
1.348,-0.04471475470763132,2.21173215718888e-06
1.349,-0.035133021555996034,2.1973716515617786e-06
1.35,-0.025551288404360755,2.183401743596772e-06
1.351,-0.0031939110505450944,2.169406549618643e-06
1.352,0.0031939110505450944,2.155495434278938e-06
1.353,0.006387822101090189,2.141878264325148e-06
1.354,0.009581733151635281,2.1283352599006185e-06
1.355,0.012775644202180378,2.114445468622365e-06
1.356,-0.006387822101090189,2.100451993895637e-06
1.357,-0.01596955525272547,2.0863992327165774e-06
1.358,-0.019163466303270562,2.0723159790334647e-06
1.359,-0.03193911050545094,2.0584242693396156e-06
1.36,-0.04471475470763132,2.0445447934401203e-06
1.361,-0.05110257680872151,2.030657551682898e-06
1.362,-0.05749039890981169,2.0166962299646213e-06
1.363,-0.06707213206144698,2.0023897476203088e-06
1.364,-0.05110257680872151,1.987890757828682e-06
1.365,-0.04471475470763132,1.973337669923201e-06
1.366,-0.025551288404360755,1.9586705269579972e-06
1.367,-0.006387822101090189,1.9438249734399796e-06
1.368,0.02235737735381566,1.9288841660564393e-06
1.369,0.025551288404360755,1.9137872531842377e-06
1.37,0.025551288404360755,1.8986217240633165e-06
1.371,0.038326932606541124,1.8836988125859511e-06
1.372,0.038326932606541124,1.8688195286103454e-06
1.373,0.035133021555996034,1.853777986060531e-06
1.374,0.019163466303270562,1.8386496259678685e-06
1.375,0.006387822101090189,1.823532738158269e-06
1.376,-0.006387822101090189,1.8082708318362793e-06
1.377,-0.019163466303270562,1.7929708327127584e-06
1.378,-0.025551288404360755,1.7774495271105576e-06
1.379,-0.04152084365708622,1.7611616018570278e-06
1.38,-0.05110257680872151,1.7444574237449932e-06
1.381,-0.05110257680872151,1.727509072918277e-06
1.382,-0.04152084365708622,1.7103163635583905e-06
1.383,-0.03193911050545094,1.6930423969315797e-06
1.384,-0.01596955525272547,1.6756265570603727e-06
1.385,-0.0031939110505450944,1.658010086192468e-06
1.386,0.006387822101090189,1.6402472128945938e-06
1.387,0.009581733151635281,1.622406281427885e-06
1.388,0.01596955525272547,1.6044524443389319e-06
1.389,0.006387822101090189,1.5864185430430668e-06
1.39,-0.0031939110505450944,1.568277496302411e-06
1.391,-0.0031939110505450944,1.5499336150588322e-06
1.392,-0.01596955525272547,1.5314826093090357e-06
1.393,-0.028745199454905845,1.5129027907458065e-06
1.394,-0.04471475470763132,1.4942619358609526e-06
1.395,-0.05110257680872151,1.4757811109487514e-06
1.396,-0.06387822101090188,1.4573227055942928e-06
1.397,-0.05749039890981169,1.4388130220538481e-06
1.398,-0.047908665758176414,1.4202599755112237e-06
1.399,-0.035133021555996034,1.4016141307249008e-06
1.4,-0.01596955525272547,1.3828892291571186e-06
1.401,0.0031939110505450944,1.3641163425732026e-06
1.402,0.019163466303270562,1.3452660573817536e-06
1.403,0.02235737735381566,1.3262789582278155e-06
1.404,0.028745199454905845,1.3071941666815758e-06
1.405,0.03193911050545094,1.2880149107995073e-06
1.406,0.028745199454905845,1.2687523899431771e-06
1.407,0.01596955525272547,1.2494556842131677e-06
1.408,0.006387822101090189,1.2300895351025513e-06
1.409,-0.006387822101090189,1.2106488495536662e-06
1.41,-0.025551288404360755,1.1911261494693607e-06
1.411,-0.025551288404360755,1.171466766681392e-06
1.412,-0.04152084365708622,1.151700582609064e-06
1.413,-0.05110257680872151,1.1318922456040336e-06
1.414,-0.035133021555996034,1.1120039056144896e-06
1.415,-0.03193911050545094,1.0919539849896623e-06
1.416,-0.025551288404360755,1.071825372148705e-06
1.417,-0.009581733151635281,1.051590811931999e-06
1.418,0.006387822101090189,1.0313107591986328e-06
1.419,0.009581733151635281,1.0112084316984538e-06
1.42,0.01596955525272547,9.911464741838482e-07
1.421,0.03193911050545094,9.709835135999877e-07
1.422,0.028745199454905845,9.507764524623862e-07
1.423,0.03193911050545094,9.305934390894627e-07
1.424,0.006387822101090189,9.103293023101137e-07
1.425,-0.01596955525272547,8.900783141210692e-07
1.426,-0.038326932606541124,8.697013703510335e-07
1.427,-0.04152084365708622,8.487993155450314e-07
1.428,-0.05749039890981169,8.276462872749115e-07
1.429,-0.05749039890981169,8.063152792380039e-07
1.43,-0.06387822101090188,7.848614483018071e-07
1.431,-0.05429648785926659,7.635419663787457e-07
1.432,-0.038326932606541124,7.422022283713495e-07
1.433,-0.02235737735381566,7.208235545435892e-07
1.434,-0.006387822101090189,6.993895774573129e-07
1.435,0.009581733151635281,6.776885942818495e-07
1.436,0.012775644202180378,6.558603061036282e-07
1.437,0.025551288404360755,6.341534185049926e-07
1.438,0.028745199454905845,6.12447624790027e-07
1.439,0.028745199454905845,5.90491802780818e-07
1.44,0.028745199454905845,5.685811695526746e-07
1.441,0.0,5.46589567011355e-07
1.442,-0.012775644202180378,5.247797287774744e-07
1.443,-0.02235737735381566,5.039976637386532e-07
1.444,-0.04471475470763132,4.837115975439172e-07
1.445,-0.047908665758176414,4.6357605905883705e-07
1.446,-0.04152084365708622,4.436576641063864e-07
1.447,-0.04471475470763132,4.238721904955726e-07
1.448,-0.03193911050545094,4.041636565786386e-07
1.449,-0.04152084365708622,3.8466306575189993e-07
1.45,-0.025551288404360755,3.651927629985201e-07
1.451,-0.006387822101090189,3.45277404936625e-07
1.452,-0.0031939110505450944,3.2520388480152513e-07
1.453,-0.0031939110505450944,3.051637650260307e-07
1.454,0.009581733151635281,2.8510495484380623e-07
1.455,0.006387822101090189,2.6506196867192007e-07
1.456,0.012775644202180378,2.4507031780557386e-07
1.457,0.009581733151635281,2.249991508904786e-07
1.458,0.0,2.0499076889541782e-07
1.459,-0.01596955525272547,1.853973378738084e-07
1.46,-0.038326932606541124,1.6595518871389128e-07
1.461,-0.04152084365708622,1.4668181732792678e-07
1.462,-0.047908665758176414,1.27448562371616e-07
1.463,-0.05429648785926659,1.0783075468064427e-07
1.464,-0.05110257680872151,8.812977059272023e-08
1.465,-0.035133021555996034,6.831422934324064e-08
1.466,-0.028745199454905845,4.849700195389791e-08
1.467,-0.006387822101090189,2.927398018592043e-08
1.468,0.0031939110505450944,1.0256876575305692e-08
1.469,0.01596955525272547,-9.058743581308204e-09
1.47,0.02235737735381566,-2.8459827118163713e-08
1.471,0.035133021555996034,-4.75842680688677e-08
1.472,0.028745199454905845,-6.691929619484883e-08
1.473,0.01596955525272547,-8.617438148684907e-08
1.474,0.0,-1.0586968895209576e-07
1.475,-0.01596955525272547,-1.275681090872448e-07
1.476,-0.03193911050545094,-1.5025368395872025e-07
1.477,-0.04152084365708622,-1.7348039319085816e-07
1.478,-0.047908665758176414,-1.9720355359096495e-07
1.479,-0.05110257680872151,-2.2084358727421037e-07
1.48,-0.06387822101090188,-2.4466854787780063e-07
1.481,-0.05110257680872151,-2.688195753177625e-07
1.482,-0.047908665758176414,-2.9319804918493585e-07
1.483,-0.028745199454905845,-3.1784206736403806e-07
1.484,-0.012775644202180378,-3.42700313401196e-07
1.485,-0.0031939110505450944,-3.675177318568736e-07
1.486,0.0031939110505450944,-3.924321744198212e-07
1.487,0.0031939110505450944,-4.1779523433999846e-07
1.488,0.0031939110505450944,-4.432062820008755e-07
1.489,0.01596955525272547,-4.688302798585978e-07
1.49,0.006387822101090189,-4.943096756889618e-07
1.491,0.0,-5.185507467057262e-07
1.492,-0.02235737735381566,-5.422575289204899e-07
1.493,-0.025551288404360755,-5.65715151003344e-07
1.494,-0.035133021555996034,-5.889641677464898e-07
1.495,-0.05429648785926659,-6.12446664248746e-07
1.496,-0.060684309960356786,-6.359325255734662e-07
1.497,-0.06387822101090188,-6.59311265821324e-07
1.498,-0.038326932606541124,-6.826367095474377e-07
1.499,-0.035133021555996034,-7.05806598693263e-07
1.5,-0.019163466303270562,-7.288820110377808e-07
1.501,0.0031939110505450944,-7.521448822105428e-07
1.502,0.012775644202180378,-7.7541989827951e-07
1.503,0.01596955525272547,-7.982814690561755e-07
1.504,0.02235737735381566,-8.211648705371719e-07
1.505,0.03193911050545094,-8.43924018401645e-07
1.506,0.019163466303270562,-8.668900607407509e-07
1.507,0.012775644202180378,-8.912075063473339e-07
1.508,-0.0031939110505450944,-9.161572723727496e-07
1.509,-0.02235737735381566,-9.411797438580893e-07
1.51,-0.028745199454905845,-9.664273471273332e-07
1.511,-0.035133021555996034,-9.919545109720956e-07
1.512,-0.04152084365708622,-1.0175210895823067e-06
1.513,-0.05749039890981169,-1.043337797630749e-06
1.514,-0.05110257680872151,-1.069059474265992e-06
1.515,-0.04471475470763132,-1.0936487671504567e-06
1.516,-0.025551288404360755,-1.1177288061023711e-06
1.517,-0.0031939110505450944,-1.1418118743521371e-06
1.518,0.0,-1.1657157305427641e-06
1.519,0.009581733151635281,-1.1893442074621085e-06
1.52,0.02235737735381566,-1.2129437466631228e-06
1.521,0.028745199454905845,-1.2361589925615255e-06
1.522,0.04471475470763132,-1.2594376143844566e-06
1.523,0.04152084365708622,-1.2840020264948388e-06
1.524,0.025551288404360755,-1.3089759461028278e-06
1.525,0.01596955525272547,-1.3342365803813188e-06
1.526,0.0,-1.359505193162806e-06
1.527,-0.012775644202180378,-1.3837287576511125e-06
1.528,-0.025551288404360755,-1.4075924369399507e-06
1.529,-0.038326932606541124,-1.4310856143487957e-06
1.53,-0.04471475470763132,-1.454382501445643e-06
1.531,-0.047908665758176414,-1.478662721419378e-06
1.532,-0.028745199454905845,-1.503145458540897e-06
1.533,-0.012775644202180378,-1.5266925238782086e-06
1.534,-0.009581733151635281,-1.549805570896328e-06
1.535,0.0031939110505450944,-1.5734274864982043e-06
1.536,0.012775644202180378,-1.5963561773345349e-06
1.537,0.02235737735381566,-1.6192086736986996e-06
1.538,0.028745199454905845,-1.640798126924917e-06
1.539,0.035133021555996034,-1.65746617451095e-06
1.54,0.009581733151635281,-1.671549550103751e-06
1.541,0.0,-1.6842729673924935e-06
1.542,-0.025551288404360755,-1.695572327013907e-06
1.543,-0.03193911050545094,-1.706382696981804e-06
1.544,-0.04152084365708622,-1.7164347284618383e-06
1.545,-0.05749039890981169,-1.725299832269957e-06
1.546,-0.06387822101090188,-1.7334228242035062e-06
1.547,-0.06387822101090188,-1.7415964236144638e-06
1.548,-0.05110257680872151,-1.7493764082009566e-06
1.549,-0.04152084365708622,-1.7567444072407137e-06
1.55,-0.01596955525272547,-1.7636165827080363e-06
1.551,0.006387822101090189,-1.7694914363142226e-06
1.552,0.009581733151635281,-1.7748097305418574e-06
1.553,0.006387822101090189,-1.779572587618072e-06
1.554,0.009581733151635281,-1.7839971391264731e-06
1.555,0.02235737735381566,-1.788867006495502e-06
1.556,0.02235737735381566,-1.793725147015423e-06
1.557,0.01596955525272547,-1.798247638612124e-06
1.558,0.0031939110505450944,-1.8025390548946873e-06
1.559,-0.012775644202180378,-1.806609949949406e-06
1.56,-0.025551288404360755,-1.810369750744785e-06
1.561,-0.038326932606541124,-1.8139622299011615e-06
1.562,-0.035133021555996034,-1.817217354928401e-06
1.563,-0.05110257680872151,-1.8195923093470299e-06
1.564,-0.05429648785926659,-1.8214414863045187e-06
1.565,-0.05110257680872151,-1.8230805828841515e-06
1.566,-0.04152084365708622,-1.8244161279848221e-06
1.567,-0.025551288404360755,-1.825370125226372e-06
1.568,-0.009581733151635281,-1.8261322259790806e-06
1.569,-0.006387822101090189,-1.8265475623525437e-06
1.57,0.0,-1.826875938113277e-06
1.571,0.0031939110505450944,-1.827850355527186e-06
1.572,0.0,-1.8290049618610934e-06
1.573,-0.006387822101090189,-1.8301479416549432e-06
1.574,-0.006387822101090189,-1.8312588113981783e-06
1.575,-0.025551288404360755,-1.8320582662637087e-06
1.576,-0.035133021555996034,-1.8326934880370447e-06
1.577,-0.035133021555996034,-1.8332322566111472e-06
1.578,-0.05429648785926659,-1.8336463736056123e-06
1.579,-0.07026604311199207,-1.834000063767095e-06
1.58,-0.07345995416253714,-1.834251227971515e-06
1.581,-0.05429648785926659,-1.8342660717949775e-06
1.582,-0.038326932606541124,-1.8341229783327205e-06
1.583,-0.025551288404360755,-1.8339967011219352e-06
1.584,-0.0031939110505450944,-1.8336953038491392e-06
1.585,0.0031939110505450944,-1.8333204031562173e-06
1.586,0.012775644202180378,-1.83268889794919e-06
1.587,0.02235737735381566,-1.8312391897691473e-06
1.588,0.028745199454905845,-1.829349451605483e-06
1.589,0.028745199454905845,-1.827152352975218e-06
1.59,0.01596955525272547,-1.824697150901902e-06
1.591,0.0,-1.822272913805331e-06
1.592,-0.006387822101090189,-1.8197223812286482e-06
1.593,-0.02235737735381566,-1.817009408642246e-06
1.594,-0.04471475470763132,-1.8141404691911705e-06
1.595,-0.05749039890981169,-1.8109566197001477e-06
1.596,-0.060684309960356786,-1.8075703546780536e-06
1.597,-0.060684309960356786,-1.8042056704894227e-06
1.598,-0.05749039890981169,-1.800754952868211e-06
1.599,-0.038326932606541124,-1.796982368146399e-06
1.6,-0.025551288404360755,-1.7931684549899132e-06
1.601,0.0,-1.7891939951490014e-06
1.602,0.0031939110505450944,-1.7853120706084367e-06
1.603,0.012775644202180378,-1.7823189145007526e-06
1.604,0.01596955525272547,-1.7797123524384687e-06
1.605,0.012775644202180378,-1.7772074450599845e-06
1.606,0.02235737735381566,-1.7748378281806526e-06
1.607,0.0,-1.7724478183849915e-06
1.608,-0.006387822101090189,-1.7700576608681255e-06
1.609,-0.01596955525272547,-1.7677724689573144e-06
1.61,-0.028745199454905845,-1.7654731222894432e-06
1.611,-0.04152084365708622,-1.762891341277002e-06
1.612,-0.047908665758176414,-1.7601869693336843e-06
1.613,-0.05110257680872151,-1.7574328185860949e-06
1.614,-0.04152084365708622,-1.7546220096186502e-06
1.615,-0.035133021555996034,-1.7518294599021953e-06
1.616,-0.01596955525272547,-1.7490150760327448e-06
1.617,0.0,-1.7461370888379282e-06
1.618,0.019163466303270562,-1.7432176432087757e-06
1.619,0.019163466303270562,-1.7402828709925462e-06
1.62,0.02235737735381566,-1.7373022513763673e-06
1.621,0.028745199454905845,-1.734309922323948e-06
1.622,0.03193911050545094,-1.73126204198647e-06
1.623,0.03193911050545094,-1.7280417373978201e-06
1.624,0.019163466303270562,-1.7247397045066208e-06
1.625,0.009581733151635281,-1.7213382279032747e-06
1.626,-0.019163466303270562,-1.7178807111892014e-06
1.627,-0.025551288404360755,-1.7145740400937874e-06
1.628,-0.038326932606541124,-1.711286486893049e-06
1.629,-0.047908665758176414,-1.7078422984556579e-06
1.63,-0.05110257680872151,-1.7043186301885525e-06
1.631,-0.04152084365708622,-1.7008518309958228e-06
1.632,-0.035133021555996034,-1.6972683795033858e-06
1.633,-0.019163466303270562,-1.6936584968446161e-06
1.634,-0.0031939110505450944,-1.6898519765694255e-06
1.635,0.01596955525272547,-1.6853128090932098e-06
1.636,0.02235737735381566,-1.6803816157356046e-06
1.637,0.028745199454905845,-1.675265944480831e-06
1.638,0.025551288404360755,-1.6699354919580434e-06
1.639,0.038326932606541124,-1.6644723717028647e-06
1.64,0.03193911050545094,-1.6588886486130054e-06
1.641,0.019163466303270562,-1.6531093304531762e-06
1.642,0.006387822101090189,-1.6472324710191769e-06
1.643,-0.025551288404360755,-1.6414996763264083e-06
1.644,-0.03193911050545094,-1.635768955961533e-06
1.645,-0.047908665758176414,-1.6299577626933894e-06
1.646,-0.05749039890981169,-1.6240865785021201e-06
1.647,-0.05429648785926659,-1.6181210118683567e-06
1.648,-0.03193911050545094,-1.612065687539003e-06
1.649,-0.028745199454905845,-1.6059772789710082e-06
1.65,-0.025551288404360755,-1.5998061335150395e-06
1.651,-0.006387822101090189,-1.5934360971934765e-06
1.652,0.0031939110505450944,-1.5869611260854796e-06
1.653,0.0,-1.580366848460559e-06
1.654,0.0031939110505450944,-1.5737093708733077e-06
1.655,0.009581733151635281,-1.5671605001656333e-06
1.656,0.019163466303270562,-1.560599268633191e-06
1.657,0.0031939110505450944,-1.554042841621896e-06
1.658,-0.006387822101090189,-1.5474443934456607e-06
1.659,-0.025551288404360755,-1.5405543686533843e-06
1.66,-0.035133021555996034,-1.5335374803979465e-06
1.661,-0.04471475470763132,-1.526610040828526e-06
1.662,-0.047908665758176414,-1.5196820968889421e-06
1.663,-0.05749039890981169,-1.5125966467365509e-06
1.664,-0.05110257680872151,-1.505565064333483e-06
1.665,-0.038326932606541124,-1.4984701870447607e-06
1.666,-0.028745199454905845,-1.4915310581073528e-06
1.667,-0.02235737735381566,-1.4854120136246102e-06
1.668,-0.012775644202180378,-1.4796876104814867e-06
1.669,0.0031939110505450944,-1.4741487622425823e-06
1.67,0.012775644202180378,-1.4687969012182185e-06
1.671,0.025551288404360755,-1.4634355405874682e-06
1.672,0.01596955525272547,-1.458138259119536e-06
1.673,0.009581733151635281,-1.452977179932807e-06
1.674,0.006387822101090189,-1.447886902253141e-06
1.675,-0.006387822101090189,-1.4427832633664264e-06
1.676,-0.025551288404360755,-1.4377102674217334e-06
1.677,-0.035133021555996034,-1.4326316803460792e-06
1.678,-0.04152084365708622,-1.427579301751741e-06
1.679,-0.04152084365708622,-1.4226656853614384e-06
1.68,-0.047908665758176414,-1.4177795100407374e-06
1.681,-0.04152084365708622,-1.4129473208481663e-06
1.682,-0.02235737735381566,-1.4080897788968795e-06
1.683,-0.012775644202180378,-1.4029490350295022e-06
1.684,0.0,-1.397687425870491e-06
1.685,0.0031939110505450944,-1.3923858928791195e-06
1.686,0.009581733151635281,-1.3870407347882906e-06
1.687,0.025551288404360755,-1.381722626277831e-06
1.688,0.02235737735381566,-1.3764050381890117e-06
1.689,0.025551288404360755,-1.3710561839132898e-06
1.69,0.006387822101090189,-1.3657032414108263e-06
1.691,-0.009581733151635281,-1.3603876322991466e-06
1.692,-0.025551288404360755,-1.3550830473812415e-06
1.693,-0.035133021555996034,-1.349801087061464e-06
1.694,-0.03193911050545094,-1.3445254130640147e-06
1.695,-0.04471475470763132,-1.3391999445909485e-06
1.696,-0.047908665758176414,-1.3338728164518113e-06
1.697,-0.04471475470763132,-1.328537462146498e-06
1.698,-0.035133021555996034,-1.3232198148092442e-06
1.699,-0.01596955525272547,-1.3180222211190725e-06
1.7,0.0,-1.3128816179732816e-06
1.701,0.012775644202180378,-1.3077364620623572e-06
1.702,0.025551288404360755,-1.3026095564132504e-06
1.703,0.035133021555996034,-1.2975293563783299e-06
1.704,0.04152084365708622,-1.2924528502217352e-06
1.705,0.04152084365708622,-1.287404563821457e-06
1.706,0.038326932606541124,-1.2823398267225246e-06
1.707,0.01596955525272547,-1.277112772557446e-06
1.708,0.0031939110505450944,-1.2718123697824517e-06
1.709,-0.01596955525272547,-1.2665177852351847e-06
1.71,-0.04152084365708622,-1.261199909239976e-06
1.711,-0.04471475470763132,-1.2558360974904646e-06
1.712,-0.047908665758176414,-1.2504723336172965e-06
1.713,-0.05429648785926659,-1.245052973332934e-06
1.714,-0.05110257680872151,-1.2396524648988994e-06
1.715,-0.03193911050545094,-1.234474995207016e-06
1.716,-0.03193911050545094,-1.2293759177425307e-06
1.717,-0.01596955525272547,-1.2243355900008771e-06
1.718,0.0,-1.2193087763054504e-06
1.719,0.0,-1.21412211671688e-06
1.72,0.0,-1.2088900296115086e-06
1.721,0.009581733151635281,-1.2036106246300231e-06
1.722,0.01596955525272547,-1.1983146639228017e-06
1.723,0.01596955525272547,-1.1931998099189561e-06
1.724,0.009581733151635281,-1.1881359221149921e-06
1.725,-0.006387822101090189,-1.1829392923811531e-06
1.726,-0.028745199454905845,-1.1776902293511053e-06
1.727,-0.038326932606541124,-1.1725350086713866e-06
1.728,-0.047908665758176414,-1.167284173985298e-06
1.729,-0.060684309960356786,-1.162041979194621e-06
1.73,-0.05749039890981169,-1.1566148718735651e-06
1.731,-0.05429648785926659,-1.1504141506540281e-06
1.732,-0.03193911050545094,-1.1438199175846436e-06
1.733,-0.01596955525272547,-1.137011358679497e-06
1.734,0.0,-1.1299948395499916e-06
1.735,0.01596955525272547,-1.1229625338146198e-06
1.736,0.012775644202180378,-1.115835652773746e-06
1.737,0.019163466303270562,-1.1085549296489744e-06
1.738,0.02235737735381566,-1.1011707645047524e-06
1.739,0.012775644202180378,-1.09372345178189e-06
1.74,0.006387822101090189,-1.0861973286156849e-06
1.741,0.0,-1.0786503414854216e-06
1.742,-0.01596955525272547,-1.0710453342124544e-06
1.743,-0.028745199454905845,-1.063269723933468e-06
1.744,-0.03193911050545094,-1.055443652561706e-06
1.745,-0.03193911050545094,-1.0475289757444919e-06
1.746,-0.04471475470763132,-1.0396219638681488e-06
1.747,-0.05110257680872151,-1.0320245793017503e-06
1.748,-0.04152084365708622,-1.02454537807321e-06
1.749,-0.019163466303270562,-1.0170981005676964e-06
1.75,-0.012775644202180378,-1.0096799106493295e-06
1.751,0.006387822101090189,-1.0021892506274865e-06
1.752,0.009581733151635281,-9.946736040806887e-07
1.753,0.01596955525272547,-9.87167536280418e-07
1.754,0.02235737735381566,-9.79647883969551e-07
1.755,0.025551288404360755,-9.721041572839914e-07
1.756,0.012775644202180378,-9.645444993124313e-07
1.757,0.0,-9.569234299643176e-07
1.758,-0.009581733151635281,-9.492756763592999e-07
1.759,-0.012775644202180378,-9.416949690529637e-07
1.76,-0.025551288404360755,-9.34092349509896e-07
1.761,-0.05110257680872151,-9.264918133595807e-07
1.762,-0.06387822101090188,-9.188330413210261e-07
1.763,-0.07026604311199207,-9.108970411873446e-07
1.764,-0.05749039890981169,-9.02820969604772e-07
1.765,-0.05749039890981169,-8.947227399855886e-07
1.766,-0.047908665758176414,-8.865654051552095e-07
1.767,-0.02235737735381566,-8.783179131971452e-07
1.768,-0.006387822101090189,-8.700458701715879e-07
1.769,0.0031939110505450944,-8.617045403223398e-07
1.77,0.0031939110505450944,-8.533725106878481e-07
1.771,0.01596955525272547,-8.452958686053005e-07
1.772,0.025551288404360755,-8.373264982741745e-07
1.773,0.01596955525272547,-8.293360061587984e-07
1.774,0.009581733151635281,-8.213720659230006e-07
1.775,-0.0031939110505450944,-8.134687462624578e-07
1.776,-0.01596955525272547,-8.055557442578148e-07
1.777,-0.03193911050545094,-7.977225279770378e-07
1.778,-0.035133021555996034,-7.898525834045568e-07
1.779,-0.047908665758176414,-7.816235737311997e-07
1.78,-0.04471475470763132,-7.732647922905181e-07
1.781,-0.04152084365708622,-7.648140639856696e-07
1.782,-0.028745199454905845,-7.5633922138267e-07
1.783,-0.028745199454905845,-7.481039836495241e-07
1.784,-0.01596955525272547,-7.399389520382831e-07
1.785,0.006387822101090189,-7.318438707106453e-07
1.786,0.019163466303270562,-7.237790763092844e-07
1.787,0.019163466303270562,-7.154610808367363e-07
1.788,0.019163466303270562,-7.070779520613664e-07
1.789,0.012775644202180378,-6.98908705851007e-07
1.79,0.01596955525272547,-6.908295312711906e-07
1.791,0.012775644202180378,-6.826049916774386e-07
1.792,-0.0031939110505450944,-6.745333246234652e-07
1.793,-0.02235737735381566,-6.664636804699588e-07
1.794,-0.035133021555996034,-6.586882383890408e-07
1.795,-0.047908665758176414,-6.521096568701153e-07
1.796,-0.05110257680872151,-6.461520249850883e-07
1.797,-0.047908665758176414,-6.405101717015808e-07
1.798,-0.04471475470763132,-6.352026643613871e-07
1.799,-0.03193911050545094,-6.300056782428022e-07
1.8,-0.019163466303270562,-6.249797817188914e-07
1.801,-0.006387822101090189,-6.202323342706974e-07
1.802,0.009581733151635281,-6.156500409859157e-07
1.803,0.019163466303270562,-6.110228000359719e-07
1.804,0.02235737735381566,-6.064694841523578e-07
1.805,0.03193911050545094,-6.020046616394373e-07
1.806,0.028745199454905845,-5.976451267121061e-07
1.807,0.012775644202180378,-5.9350945552024e-07
1.808,0.006387822101090189,-5.894969290721224e-07
1.809,-0.019163466303270562,-5.856008868341951e-07
1.81,-0.028745199454905845,-5.817778811679999e-07
1.811,-0.038326932606541124,-5.778634996963103e-07
1.812,-0.05110257680872151,-5.739510498126829e-07
1.813,-0.05749039890981169,-5.701150900756192e-07
1.814,-0.05110257680872151,-5.663263393308668e-07
1.815,-0.04152084365708622,-5.625646112353856e-07
1.816,-0.02235737735381566,-5.588629664451209e-07
1.817,-0.012775644202180378,-5.551876335123619e-07
1.818,0.0,-5.515815877455162e-07
1.819,0.012775644202180378,-5.481926993497096e-07
1.82,0.012775644202180378,-5.449246235311229e-07
1.821,0.02235737735381566,-5.416828660505613e-07
1.822,0.028745199454905845,-5.384988992842802e-07
1.823,0.02235737735381566,-5.354095741206202e-07
1.824,0.0,-5.323479975284229e-07
1.825,-0.02235737735381566,-5.293610086883882e-07
1.826,-0.025551288404360755,-5.263668832646222e-07
1.827,-0.03193911050545094,-5.231273014161101e-07
1.828,-0.05110257680872151,-5.197935497010329e-07
1.829,-0.05429648785926659,-5.164371677314574e-07
1.83,-0.05749039890981169,-5.130584420809634e-07
1.831,-0.047908665758176414,-5.097311542068318e-07
1.832,-0.038326932606541124,-5.064239218934226e-07
1.833,-0.02235737735381566,-5.03111051540177e-07
1.834,-0.006387822101090189,-4.998123528416454e-07
1.835,0.0,-4.965468232292128e-07
1.836,0.006387822101090189,-4.933040696135772e-07
1.837,0.006387822101090189,-4.90102658150895e-07
1.838,0.012775644202180378,-4.869276335227772e-07
1.839,0.009581733151635281,-4.837346115541578e-07
1.84,0.0031939110505450944,-4.805674142632889e-07
1.841,-0.01596955525272547,-4.77411072787722e-07
1.842,-0.025551288404360755,-4.7429967547453294e-07
1.843,-0.04152084365708622,-4.7134336203433835e-07
1.844,-0.05110257680872151,-4.684700824458388e-07
1.845,-0.047908665758176414,-4.656471314173647e-07
1.846,-0.04471475470763132,-4.6287174368687335e-07
1.847,-0.047908665758176414,-4.601042054933125e-07
1.848,-0.035133021555996034,-4.5736157657761656e-07
1.849,-0.01596955525272547,-4.54654742749365e-07
1.85,0.0,-4.5197466120425634e-07
1.851,0.006387822101090189,-4.493186964236709e-07
1.852,0.02235737735381566,-4.4668666998717267e-07
1.853,0.025551288404360755,-4.4406010317645536e-07
1.854,0.038326932606541124,-4.4145002372348245e-07
1.855,0.028745199454905845,-4.388874010075263e-07
1.856,0.025551288404360755,-4.3633938649986347e-07
1.857,0.012775644202180378,-4.3381477363259485e-07
1.858,0.009581733151635281,-4.3128910659112273e-07
1.859,-0.02235737735381566,-4.2868063545903397e-07
1.86,-0.038326932606541124,-4.2603928353143584e-07
1.861,-0.05429648785926659,-4.2340112206608804e-07
1.862,-0.05429648785926659,-4.2075624988932585e-07
1.863,-0.05749039890981169,-4.1810457687229395e-07
1.864,-0.04152084365708622,-4.1545760000383755e-07
1.865,-0.028745199454905845,-4.128007787646667e-07
1.866,-0.025551288404360755,-4.1015441701387137e-07
1.867,-0.006387822101090189,-4.07579507016383e-07
1.868,0.006387822101090189,-4.050381844406943e-07
1.869,0.012775644202180378,-4.024994904850346e-07
1.87,0.019163466303270562,-3.999732275496911e-07
1.871,0.01596955525272547,-3.9746405320245755e-07
1.872,0.025551288404360755,-3.9495702122581547e-07
1.873,0.006387822101090189,-3.924710834501278e-07
1.874,0.0031939110505450944,-3.899803386788881e-07
1.875,-0.006387822101090189,-3.8741429602925156e-07
1.876,-0.028745199454905845,-3.8482143644199073e-07
1.877,-0.038326932606541124,-3.822116436723744e-07
1.878,-0.047908665758176414,-3.7959671945769737e-07
1.879,-0.05429648785926659,-3.7702782091145194e-07
1.88,-0.04471475470763132,-3.744722091464944e-07
1.881,-0.04471475470763132,-3.7192708734504034e-07
1.882,-0.02235737735381566,-3.69386696034832e-07
1.883,-0.012775644202180378,-3.668014768782813e-07
1.884,-0.006387822101090189,-3.6420288183632366e-07
1.885,0.0,-3.616452536197243e-07
1.886,0.006387822101090189,-3.5910169093312333e-07
1.887,0.009581733151635281,-3.56517330295964e-07
1.888,0.02235737735381566,-3.5395555196353506e-07
1.889,0.01596955525272547,-3.513888099972826e-07
1.89,0.006387822101090189,-3.488730694981798e-07
1.891,0.0,-3.4659111067744185e-07
1.892,-0.012775644202180378,-3.44427669805192e-07
1.893,-0.025551288404360755,-3.423037969902881e-07
1.894,-0.03193911050545094,-3.4023633697375424e-07
1.895,-0.038326932606541124,-3.3821413356408505e-07
1.896,-0.035133021555996034,-3.3621774313806737e-07
1.897,-0.035133021555996034,-3.3427647320335955e-07
1.898,-0.03193911050545094,-3.323473454123448e-07
1.899,-0.02235737735381566,-3.3031061032238364e-07
1.9,-0.009581733151635281,-3.2823783776142594e-07
1.901,0.006387822101090189,-3.261818880768823e-07
1.902,0.01596955525272547,-3.2412569542706393e-07
1.903,0.02235737735381566,-3.220681621287519e-07
1.904,0.028745199454905845,-3.2002701247822247e-07
1.905,0.02235737735381566,-3.179662402068369e-07
1.906,0.01596955525272547,-3.1592779149092053e-07
1.907,0.0031939110505450944,-3.140229837304812e-07
1.908,-0.009581733151635281,-3.1217058686949036e-07
1.909,-0.02235737735381566,-3.1036294087861415e-07
1.91,-0.038326932606541124,-3.085706886597409e-07
1.911,-0.03193911050545094,-3.0668820781793e-07
1.912,-0.05110257680872151,-3.0478544719030794e-07
1.913,-0.05749039890981169,-3.028595574741009e-07
1.914,-0.05110257680872151,-3.00930237368099e-07
1.915,-0.04152084365708622,-2.991230804248213e-07
1.916,-0.025551288404360755,-2.973552456303301e-07
1.917,-0.006387822101090189,-2.9550757707286366e-07
1.918,0.0031939110505450944,-2.936323806593355e-07
1.919,0.019163466303270562,-2.9182728550494655e-07
1.92,0.019163466303270562,-2.899675972308519e-07
1.921,0.028745199454905845,-2.8811713329300473e-07
1.922,0.02235737735381566,-2.8615298600380104e-07
1.923,0.009581733151635281,-2.8369532454467407e-07
1.924,0.0,-2.809863093987399e-07
1.925,-0.019163466303270562,-2.7815599695778603e-07
1.926,-0.038326932606541124,-2.751952671981318e-07
1.927,-0.05110257680872151,-2.7219491798510493e-07
1.928,-0.05749039890981169,-2.6913254321958767e-07
1.929,-0.05429648785926659,-2.659622278457827e-07
1.93,-0.04471475470763132,-2.6273355327625693e-07
1.931,-0.04152084365708622,-2.5954242069562316e-07
1.932,-0.028745199454905845,-2.5633417641835945e-07
1.933,-0.02235737735381566,-2.5309769197471655e-07
1.934,0.0,-2.498279601577384e-07
1.935,0.012775644202180378,-2.4647776109364775e-07
1.936,0.009581733151635281,-2.4308552041867514e-07
1.937,0.019163466303270562,-2.3965738214438147e-07
1.938,0.025551288404360755,-2.362065853048157e-07
1.939,0.02235737735381566,-2.3278776051260108e-07
1.94,0.02235737735381566,-2.293715988365049e-07
1.941,0.0,-2.2592947384101584e-07
1.942,-0.019163466303270562,-2.2247561424186112e-07
1.943,-0.025551288404360755,-2.1902764004753966e-07
1.944,-0.038326932606541124,-2.155661923225477e-07
1.945,-0.05110257680872151,-2.1210475077058206e-07
1.946,-0.047908665758176414,-2.0862472930430484e-07
1.947,-0.05429648785926659,-2.0505664504000835e-07
1.948,-0.047908665758176414,-2.0144583224977174e-07
1.949,-0.038326932606541124,-1.9784072397108588e-07
1.95,-0.019163466303270562,-1.942238566934518e-07
1.951,0.0,-1.9057086598899914e-07
1.952,0.006387822101090189,-1.8692027254934567e-07
1.953,0.0,-1.8324795821945198e-07
1.954,0.01596955525272547,-1.7959751129209298e-07
1.955,0.028745199454905845,-1.7609886866783346e-07
1.956,0.019163466303270562,-1.7266972673537085e-07
1.957,0.006387822101090189,-1.692678576325472e-07
1.958,-0.006387822101090189,-1.658954816221733e-07
1.959,-0.025551288404360755,-1.6251861824276175e-07
1.96,-0.04152084365708622,-1.591484870538083e-07
1.961,-0.038326932606541124,-1.5580049667204293e-07
1.962,-0.05110257680872151,-1.5246006529402348e-07
1.963,-0.05110257680872151,-1.4910247927798864e-07
1.964,-0.04152084365708622,-1.4574220113926645e-07
1.965,-0.03193911050545094,-1.4237815432219178e-07
1.966,-0.019163466303270562,-1.3901479814814102e-07
1.967,0.0,-1.3567202467113288e-07
1.968,0.012775644202180378,-1.3233264062329368e-07
1.969,0.009581733151635281,-1.2899832980495916e-07
1.97,0.012775644202180378,-1.256597616844441e-07
1.971,0.019163466303270562,-1.2228298914721533e-07
1.972,0.012775644202180378,-1.188890374822987e-07
1.973,0.0031939110505450944,-1.1549232056075705e-07
1.974,-0.02235737735381566,-1.1208943662553239e-07
1.975,-0.028745199454905845,-1.0868205995139791e-07
1.976,-0.05429648785926659,-1.0527369452155272e-07
1.977,-0.05110257680872151,-1.0185862704134549e-07
1.978,-0.060684309960356786,-9.844468549370877e-08
1.979,-0.07345995416253714,-9.505414665040649e-08
1.98,-0.06707213206144698,-9.167328791910163e-08
1.981,-0.06387822101090188,-8.829202139384192e-08
1.982,-0.04152084365708622,-8.491323346900343e-08
1.983,-0.028745199454905845,-8.153664133584844e-08
1.984,-0.0031939110505450944,-7.815886282882899e-08
1.985,0.009581733151635281,-7.47865113210486e-08
1.986,0.02235737735381566,-7.141144896532809e-08
1.987,0.03193911050545094,-6.801278357228388e-08
1.988,0.025551288404360755,-6.460547233026052e-08
1.989,0.019163466303270562,-6.11899631352503e-08
1.99,0.006387822101090189,-5.777213105553314e-08
1.991,0.006387822101090189,-5.437284531257873e-08
1.992,-0.012775644202180378,-5.097749345536946e-08
1.993,-0.025551288404360755,-4.758727538129544e-08
1.994,-0.02235737735381566,-4.4196956375863354e-08
1.995,-0.03193911050545094,-4.07788097923964e-08
1.996,-0.038326932606541124,-3.7351031512756485e-08
1.997,-0.038326932606541124,-3.393614849909896e-08
1.998,-0.028745199454905845,-3.0524969366542884e-08
1.999,-0.012775644202180378,-2.710285452647742e-08
2.0,0.0,-2.3690638508179207e-08
2.001,0.02235737735381566,-2.0274193100684747e-08
2.002,0.02235737735381566,-1.6877549600093563e-08
2.003,0.02235737735381566,-1.3570439905173584e-08
2.004,0.038326932606541124,-1.0306616587276736e-08
2.005,0.035133021555996034,-7.071600656500438e-09
2.006,0.028745199454905845,-3.858794435427888e-09
2.007,0.012775644202180378,-6.301234522634239e-10
2.008,-0.0031939110505450944,2.5919332976218603e-09
2.009,-0.02235737735381566,5.802232616996395e-09
2.01,-0.04152084365708622,9.000174482236313e-09
2.011,-0.05110257680872151,1.216048567386925e-08
2.012,-0.047908665758176414,1.529908462997279e-08
2.013,-0.05429648785926659,1.844969190216512e-08
2.014,-0.04152084365708622,2.1594364142944918e-08
2.015,-0.035133021555996034,2.4694109576540745e-08
2.016,-0.02235737735381566,2.7792008944185096e-08
2.017,0.0,3.0870832359973734e-08
2.018,0.0031939110505450944,3.396677923309757e-08
2.019,0.006387822101090189,3.720021963158327e-08
2.02,0.01596955525272547,4.049532424197959e-08
2.021,0.009581733151635281,4.37979510743738e-08
2.022,0.012775644202180378,4.7120728989410935e-08
2.023,0.02235737735381566,5.04603804449107e-08
2.024,0.012775644202180378,5.38002102237818e-08
2.025,-0.006387822101090189,5.716041764354076e-08
2.026,-0.025551288404360755,6.051018705932886e-08
2.027,-0.03193911050545094,6.376119928193365e-08
2.028,-0.025551288404360755,6.696634254771332e-08
2.029,-0.035133021555996034,7.016633641989759e-08
2.03,-0.03193911050545094,7.33474977944135e-08
2.031,-0.028745199454905845,7.650627127485866e-08
2.032,-0.01596955525272547,7.965868606020897e-08
2.033,-0.006387822101090189,8.277675062185851e-08
2.034,0.009581733151635281,8.589413529956734e-08
2.035,0.012775644202180378,8.910123056758194e-08
2.036,0.01596955525272547,9.233254552832623e-08
2.037,0.02235737735381566,9.558080707017438e-08
2.038,0.01596955525272547,9.882340791160704e-08
2.039,0.012775644202180378,1.0197759320642968e-07
2.04,0.0,1.0509786480564439e-07
2.041,-0.012775644202180378,1.081824440661006e-07
2.042,-0.035133021555996034,1.1124622422161425e-07
2.043,-0.04471475470763132,1.1438572514434218e-07
2.044,-0.047908665758176414,1.1753719440667921e-07
2.045,-0.05429648785926659,1.2060882014214775e-07
2.046,-0.06387822101090188,1.2364088788651678e-07
2.047,-0.05749039890981169,1.267085668408855e-07
2.048,-0.047908665758176414,1.297157002825012e-07
2.049,-0.04152084365708622,1.3271184665587188e-07
2.05,-0.01596955525272547,1.356018580047086e-07
2.051,-0.0031939110505450944,1.3809239166450193e-07
2.052,0.0,1.4037073802387477e-07
2.053,0.006387822101090189,1.4253567338740971e-07
2.054,0.0,1.4458158276216746e-07
2.055,0.019163466303270562,1.4658222441229443e-07
2.056,0.0031939110505450944,1.485170910388766e-07
2.057,0.0,1.5035154567214485e-07
2.058,-0.025551288404360755,1.5212192481542806e-07
2.059,-0.035133021555996034,1.5389445182318154e-07
2.06,-0.04471475470763132,1.5563184790706453e-07
2.061,-0.05429648785926659,1.5733084526459884e-07
2.062,-0.07026604311199207,1.5898544976481517e-07
2.063,-0.07026604311199207,1.6055640375323263e-07
2.064,-0.05749039890981169,1.6207762153118035e-07
2.065,-0.04471475470763132,1.635503747439565e-07
2.066,-0.028745199454905845,1.649902637454794e-07
2.067,-0.006387822101090189,1.6645490869344875e-07
2.068,0.0031939110505450944,1.6791121007652693e-07
2.069,0.009581733151635281,1.693341841751137e-07
2.07,0.019163466303270562,1.707328748956129e-07
2.071,0.02235737735381566,1.7211134759051115e-07
2.072,0.019163466303270562,1.734604138319922e-07
2.073,0.012775644202180378,1.7479132105656332e-07
2.074,0.009581733151635281,1.7609026752335506e-07
2.075,-0.01596955525272547,1.773112021355021e-07
2.076,-0.02235737735381566,1.784841946924963e-07
2.077,-0.028745199454905845,1.7963760483851993e-07
2.078,-0.04471475470763132,1.8076243366230067e-07
2.079,-0.047908665758176414,1.8184925860782988e-07
2.08,-0.047908665758176414,1.8291696039848314e-07
2.081,-0.03193911050545094,1.8395157134272736e-07
2.082,-0.028745199454905845,1.8497715494202839e-07
2.083,-0.006387822101090189,1.8606295844066426e-07
2.084,0.012775644202180378,1.871650405483556e-07
2.085,0.01596955525272547,1.8826366111500223e-07
2.086,0.019163466303270562,1.8935805253784723e-07
2.087,0.009581733151635281,1.9042491711240543e-07
2.088,0.02235737735381566,1.9147521962648154e-07
2.089,0.012775644202180378,1.9251604127189227e-07
2.09,0.006387822101090189,1.9354282961533144e-07
2.091,-0.0031939110505450944,1.9455451030514503e-07
2.092,-0.019163466303270562,1.9555145565117266e-07
2.093,-0.038326932606541124,1.9652552636059667e-07
2.094,-0.04471475470763132,1.9748226006146504e-07
2.095,-0.047908665758176414,1.9843596022321063e-07
2.096,-0.05749039890981169,1.993718515399322e-07
2.097,-0.05749039890981169,2.0029630746565407e-07
2.098,-0.05110257680872151,2.0119662510809516e-07
2.099,-0.025551288404360755,2.0203278448718728e-07
2.1,-0.009581733151635281,2.0283138920428342e-07
2.101,0.0,2.0360314048973688e-07
2.102,0.009581733151635281,2.0435031882361203e-07
2.103,0.019163466303270562,2.0509046904468914e-07
2.104,0.019163466303270562,2.0581491120686386e-07
2.105,0.028745199454905845,2.0652039696177452e-07
2.106,0.028745199454905845,2.0720883043081507e-07
2.107,0.01596955525272547,2.0787506291620974e-07
2.108,-0.009581733151635281,2.085231490204667e-07
2.109,-0.035133021555996034,2.0916446167220951e-07
2.11,-0.04152084365708622,2.097931750847556e-07
2.111,-0.047908665758176414,2.1039524671213233e-07
2.112,-0.047908665758176414,2.1098669361110278e-07
2.113,-0.05429648785926659,2.115616986462128e-07
2.114,-0.05110257680872151,2.1213375304390435e-07
2.115,-0.04152084365708622,2.1274615628176922e-07
2.116,-0.02235737735381566,2.133719439866113e-07
2.117,-0.009581733151635281,2.1399435493612397e-07
2.118,0.0,2.1461646216800946e-07
2.119,0.0,2.1523287567750383e-07
2.12,0.006387822101090189,2.15842139198774e-07
2.121,0.01596955525272547,2.1645069949848636e-07
2.122,0.01596955525272547,2.1705056865699591e-07
2.123,0.012775644202180378,2.176208334881886e-07
2.124,0.009581733151635281,2.1817427752384393e-07
2.125,-0.0031939110505450944,2.187193337506932e-07
2.126,-0.01596955525272547,2.1925392548641272e-07
2.127,-0.025551288404360755,2.1977981124068182e-07
2.128,-0.038326932606541124,2.202984431634027e-07
2.129,-0.038326932606541124,2.2080478659302557e-07
2.13,-0.038326932606541124,2.21304549591509e-07
2.131,-0.025551288404360755,2.2181203115347536e-07
2.132,-0.025551288404360755,2.2231699115648596e-07
2.133,-0.006387822101090189,2.2281878724507652e-07
2.134,0.006387822101090189,2.2331365563594728e-07
2.135,0.009581733151635281,2.237877963417846e-07
2.136,0.019163466303270562,2.2425064058026318e-07
2.137,0.025551288404360755,2.2470210894711118e-07
2.138,0.038326932606541124,2.2514485443613729e-07
2.139,0.035133021555996034,2.255956103269742e-07
2.14,0.02235737735381566,2.2604377451548338e-07
2.141,0.006387822101090189,2.26472876444257e-07
2.142,-0.0031939110505450944,2.2689074685844375e-07
2.143,-0.028745199454905845,2.273125756355646e-07
2.144,-0.035133021555996034,2.277202804924128e-07
2.145,-0.04152084365708622,2.2812229727088323e-07
2.146,-0.04471475470763132,2.285020368097409e-07
2.147,-0.04152084365708622,2.2880601268200817e-07
2.148,-0.04471475470763132,2.290680932169778e-07
2.149,-0.04152084365708622,2.2931048979673796e-07
2.15,-0.01596955525272547,2.295290313053953e-07
2.151,-0.0031939110505450944,2.2972891443591337e-07
2.152,0.009581733151635281,2.2991411998806776e-07
2.153,0.006387822101090189,2.300765106866999e-07
2.154,0.009581733151635281,2.3022761560219502e-07
2.155,0.006387822101090189,2.3039829214820707e-07
2.156,-0.006387822101090189,2.3057022562688805e-07
2.157,-0.01596955525272547,2.307307725189337e-07
2.158,-0.028745199454905845,2.3088380030417579e-07
2.159,-0.047908665758176414,2.310281694415463e-07
2.16,-0.05110257680872151,2.3116092534099154e-07
2.161,-0.047908665758176414,2.3129074827335637e-07
2.162,-0.05749039890981169,2.3140821894976274e-07
2.163,-0.05429648785926659,2.3148893663190804e-07
2.164,-0.047908665758176414,2.3155111467660115e-07
2.165,-0.035133021555996034,2.3159552317205208e-07
2.166,-0.019163466303270562,2.316296720951972e-07
2.167,-0.009581733151635281,2.316792915492137e-07
2.168,0.0,2.3172706909533478e-07
2.169,0.006387822101090189,2.3177424513945353e-07
2.17,0.012775644202180378,2.3181541633596417e-07
2.171,0.028745199454905845,2.318181291988908e-07
2.172,0.02235737735381566,2.3180382957560165e-07
2.173,0.019163466303270562,2.318024372348448e-07
2.174,0.012775644202180378,2.318010692840665e-07
2.175,0.0,2.3177615787808823e-07
2.176,-0.02235737735381566,2.3175834309729357e-07
2.177,-0.03193911050545094,2.317315379040376e-07
2.178,-0.05749039890981169,2.3172645386706972e-07
2.179,-0.05749039890981169,2.318373450371748e-07
2.18,-0.04471475470763132,2.3200404143447947e-07
2.181,-0.04471475470763132,2.3219524858408652e-07
2.182,-0.035133021555996034,2.3241248260651297e-07
2.183,-0.012775644202180378,2.3263125698464157e-07
2.184,0.0031939110505450944,2.3285894243813577e-07
2.185,0.0031939110505450944,2.3310651672599397e-07
2.186,0.009581733151635281,2.333628048750838e-07
2.187,0.009581733151635281,2.3360839500958165e-07
2.188,0.012775644202180378,2.3385416348164502e-07
2.189,0.006387822101090189,2.3409996775781743e-07
2.19,0.0,2.3434827108771898e-07
2.191,-0.006387822101090189,2.3461237820210286e-07
2.192,-0.025551288404360755,2.3488045341903869e-07
2.193,-0.038326932606541124,2.3515293456788296e-07
2.194,-0.047908665758176414,2.3542360922070273e-07
2.195,-0.04471475470763132,2.3567043329170997e-07
2.196,-0.06387822101090188,2.3590650748361254e-07
2.197,-0.05429648785926659,2.3614058186895602e-07
2.198,-0.04471475470763132,2.363702336795162e-07
2.199,-0.025551288404360755,2.3659638331745058e-07
2.2,-0.0031939110505450944,2.3682071652365144e-07
2.201,0.0031939110505450944,2.3703946056960764e-07
2.202,0.012775644202180378,2.3725698290762903e-07
2.203,0.012775644202180378,2.3748642426072967e-07
2.204,0.025551288404360755,2.377192697498074e-07
2.205,0.02235737735381566,2.3794851242634078e-07
2.206,0.01596955525272547,2.3817605693135496e-07
2.207,0.009581733151635281,2.384027988441108e-07
2.208,-0.006387822101090189,2.386252171981609e-07
2.209,-0.019163466303270562,2.3884679336465124e-07
2.21,-0.028745199454905845,2.390620255113774e-07
2.211,-0.028745199454905845,2.392558249773793e-07
2.212,-0.035133021555996034,2.3943787428926127e-07
2.213,-0.04471475470763132,2.396115526213113e-07
2.214,-0.04152084365708622,2.39777771269248e-07
2.215,-0.03193911050545094,2.399435209455915e-07
2.216,-0.009581733151635281,2.4010467730711505e-07
2.217,0.01596955525272547,2.402601399789479e-07
2.218,0.028745199454905845,2.4040980971784164e-07
2.219,0.025551288404360755,2.405496661117672e-07
2.22,0.03193911050545094,2.406822832824282e-07
2.221,0.028745199454905845,2.408121966900486e-07
2.222,0.025551288404360755,2.4093710623764094e-07
2.223,0.019163466303270562,2.410525792940912e-07
2.224,0.0,2.411639223502785e-07
2.225,-0.012775644202180378,2.4126784382056555e-07
2.226,-0.025551288404360755,2.413699298041427e-07
2.227,-0.028745199454905845,2.41486842216157e-07
2.228,-0.05110257680872151,2.4160730302503026e-07
2.229,-0.05749039890981169,2.4172786540769413e-07
2.23,-0.05749039890981169,2.418466744849055e-07
2.231,-0.04152084365708622,2.4195412842101424e-07
2.232,-0.03193911050545094,2.4205581607459263e-07
2.233,-0.01596955525272547,2.421526149791066e-07
2.234,0.0031939110505450944,2.4224487644836464e-07
2.235,0.006387822101090189,2.423395225215032e-07
2.236,0.012775644202180378,2.4243187022614953e-07
2.237,0.02235737735381566,2.425136776599348e-07
2.238,0.028745199454905845,2.425888452716374e-07
2.239,0.02235737735381566,2.426654404536456e-07
2.24,0.009581733151635281,2.427337341822668e-07
2.241,-0.012775644202180378,2.427982355983551e-07
2.242,-0.028745199454905845,2.428498690243486e-07
2.243,-0.047908665758176414,2.428602390112521e-07
2.244,-0.06387822101090188,2.428474236775782e-07
2.245,-0.06707213206144698,2.4282130750646263e-07
2.246,-0.07345995416253714,2.4278107098713836e-07
2.247,-0.06387822101090188,2.427331514151221e-07
2.248,-0.04471475470763132,2.4267618381998684e-07
2.249,-0.025551288404360755,2.426066550396211e-07
2.25,-0.0031939110505450944,2.425284625478155e-07
2.251,-0.0031939110505450944,2.424495363360815e-07
2.252,0.006387822101090189,2.423653119768072e-07
2.253,0.01596955525272547,2.4227444763688174e-07
2.254,0.028745199454905845,2.42176770507235e-07
2.255,0.02235737735381566,2.420690072158608e-07
2.256,0.012775644202180378,2.419536318769408e-07
2.257,0.009581733151635281,2.418314414849558e-07
2.258,-0.006387822101090189,2.417029090183348e-07
2.259,-0.025551288404360755,2.4157064737329936e-07
2.26,-0.04152084365708622,2.414334679349877e-07
2.261,-0.047908665758176414,2.412894787744673e-07
2.262,-0.05110257680872151,2.4113995211312685e-07
2.263,-0.05429648785926659,2.409871722859163e-07
2.264,-0.047908665758176414,2.408290922363306e-07
2.265,-0.038326932606541124,2.4066665662097334e-07
2.266,-0.012775644202180378,2.404983895407945e-07
2.267,-0.0031939110505450944,2.403182424269912e-07
2.268,0.009581733151635281,2.401301595498052e-07
2.269,0.01596955525272547,2.399386976996071e-07
2.27,0.01596955525272547,2.397421008812906e-07
2.271,0.02235737735381566,2.3953763993511987e-07
2.272,0.019163466303270562,2.393292728339076e-07
2.273,0.012775644202180378,2.391146942568905e-07
2.274,0.009581733151635281,2.3889815756875217e-07
2.275,-0.006387822101090189,2.3869253944523506e-07
2.276,-0.01596955525272547,2.3848967356692486e-07
2.277,-0.019163466303270562,2.3828520251939545e-07
2.278,-0.02235737735381566,2.3807945131736558e-07
2.279,-0.028745199454905845,2.3786934157392897e-07
2.28,-0.03193911050545094,2.3765568729563872e-07
2.281,-0.02235737735381566,2.3744008005604842e-07
2.282,-0.01596955525272547,2.3722087168045655e-07
2.283,-0.006387822101090189,2.3699489006585264e-07
2.284,0.006387822101090189,2.3676399792846384e-07
2.285,0.019163466303270562,2.3652849812780713e-07
2.286,0.02235737735381566,2.3628866121918663e-07
2.287,0.02235737735381566,2.3604629738131574e-07
2.288,0.025551288404360755,2.3579996968338616e-07
2.289,0.019163466303270562,2.3554951128878309e-07
2.29,-0.0031939110505450944,2.3529442592724556e-07
2.291,-0.01596955525272547,2.3503252148008728e-07
2.292,-0.035133021555996034,2.347650230349988e-07
2.293,-0.05110257680872151,2.3449331483635528e-07
2.294,-0.05749039890981169,2.3421672064790138e-07
2.295,-0.05429648785926659,2.3393422675473596e-07
2.296,-0.06387822101090188,2.3364698341441383e-07
2.297,-0.06707213206144698,2.333543469901204e-07
2.298,-0.05110257680872151,2.3305737067827327e-07
2.299,-0.047908665758176414,2.3275979049667517e-07
2.3,-0.038326932606541124,2.32459222174021e-07
2.301,-0.0031939110505450944,2.3215340184799573e-07
2.302,0.0,2.3184311313654407e-07
2.303,0.0,2.3152912654010287e-07
2.304,0.009581733151635281,2.3120993770083315e-07
2.305,0.019163466303270562,2.30886977300912e-07
2.306,0.01596955525272547,2.3055808844675463e-07
2.307,0.009581733151635281,2.3021731153151274e-07
2.308,0.0031939110505450944,2.2986868939952555e-07
2.309,-0.01596955525272547,2.2951304578187894e-07
2.31,-0.01596955525272547,2.2915133341315215e-07
2.311,-0.012775644202180378,2.2878773553318963e-07
2.312,-0.025551288404360755,2.2841952038280117e-07
2.313,-0.035133021555996034,2.2804660537442414e-07
2.314,-0.028745199454905845,2.2766833077046107e-07
2.315,-0.028745199454905845,2.2728035091525143e-07
2.316,-0.009581733151635281,2.2688552624020257e-07
2.317,0.009581733151635281,2.2648770787924882e-07
2.318,0.019163466303270562,2.260852407930388e-07
2.319,0.025551288404360755,2.256752982296387e-07
2.32,0.035133021555996034,2.2526170178567666e-07
2.321,0.028745199454905845,2.2484196826280286e-07
2.322,0.01596955525272547,2.2442036735577044e-07
2.323,0.012775644202180378,2.2400938262659489e-07
2.324,0.0,2.2360071506501673e-07
2.325,-0.01596955525272547,2.2319174868604816e-07
2.326,-0.03193911050545094,2.2278129417948935e-07
2.327,-0.038326932606541124,2.223625402575893e-07
2.328,-0.047908665758176414,2.219394848334868e-07
2.329,-0.06387822101090188,2.215130114814965e-07
2.33,-0.06387822101090188,2.2108323109012959e-07
2.331,-0.05110257680872151,2.206546585470165e-07
2.332,-0.038326932606541124,2.2022440605610748e-07
2.333,-0.019163466303270562,2.1978653900036587e-07
2.334,0.0,2.1934415663128782e-07
2.335,0.006387822101090189,2.1890394860287087e-07
2.336,0.009581733151635281,2.184584197569057e-07
2.337,0.019163466303270562,2.1801065515542387e-07
2.338,0.009581733151635281,2.1755423318864796e-07
2.339,0.009581733151635281,2.170680521061063e-07
2.34,0.0031939110505450944,2.1656543938798893e-07
2.341,-0.009581733151635281,2.1605545911609607e-07
2.342,-0.028745199454905845,2.1553622236547755e-07
2.343,-0.03193911050545094,2.1500916033924439e-07
2.344,-0.047908665758176414,2.1447640860600574e-07
2.345,-0.06707213206144698,2.1393459063985503e-07
2.346,-0.05429648785926659,2.133886307503589e-07
2.347,-0.038326932606541124,2.1285211945876214e-07
2.348,-0.028745199454905845,2.123169301184978e-07
2.349,-0.028745199454905845,2.1177724505683662e-07
2.35,-0.009581733151635281,2.1123487728665633e-07
2.351,0.0031939110505450944,2.106896029477867e-07
2.352,0.006387822101090189,2.1013973900247353e-07
2.353,0.02235737735381566,2.0958935172014507e-07
2.354,0.009581733151635281,2.0903384481451523e-07
2.355,0.012775644202180378,2.084613060633137e-07
2.356,0.019163466303270562,2.0788056151481803e-07
2.357,0.0031939110505450944,2.0729181952847744e-07
2.358,-0.012775644202180378,2.0669878868473536e-07
2.359,-0.028745199454905845,2.061141708937651e-07
2.36,-0.047908665758176414,2.055292775866007e-07
2.361,-0.047908665758176414,2.0494480650435724e-07
2.362,-0.06387822101090188,2.0435786917125716e-07
2.363,-0.05749039890981169,2.037519728235864e-07
2.364,-0.04471475470763132,2.0313798141595796e-07
2.365,-0.035133021555996034,2.0253050217628275e-07
2.366,-0.01596955525272547,2.0192333795445288e-07
2.367,0.0,2.0130555987646523e-07
2.368,0.009581733151635281,2.0069169784059962e-07
2.369,0.019163466303270562,2.0007355634439073e-07
2.37,0.025551288404360755,1.994662542859247e-07
2.371,0.025551288404360755,1.98915507877568e-07
2.372,0.019163466303270562,1.983918325870074e-07
2.373,0.019163466303270562,1.9788151076703113e-07
2.374,0.012775644202180378,1.97383953612146e-07
2.375,-0.012775644202180378,1.9688395104193746e-07
2.376,-0.038326932606541124,1.9638794383279155e-07
2.377,-0.04152084365708622,1.9590049901980846e-07
2.378,-0.05110257680872151,1.9541791138186657e-07
2.379,-0.05429648785926659,1.949377925618038e-07
2.38,-0.05429648785926659,1.9446095695431286e-07
2.381,-0.04152084365708622,1.9398243145469414e-07
2.382,-0.03193911050545094,1.9350535379145546e-07
2.383,-0.012775644202180378,1.930388247461034e-07
2.384,-0.0031939110505450944,1.925731099901815e-07
2.385,0.0,1.9211151288279467e-07
2.386,0.009581733151635281,1.9164609405198807e-07
2.387,0.01596955525272547,1.9115193875324335e-07
2.388,0.01596955525272547,1.9064494517153871e-07
2.389,0.02235737735381566,1.901322743686197e-07
2.39,0.006387822101090189,1.8961424594654262e-07
2.391,-0.006387822101090189,1.8909939687324303e-07
2.392,-0.01596955525272547,1.885837953694068e-07
2.393,-0.028745199454905845,1.8806461997450834e-07
2.394,-0.03193911050545094,1.8754384123250653e-07
2.395,-0.05110257680872151,1.870222833231949e-07
2.396,-0.05110257680872151,1.8649936667062805e-07
2.397,-0.05110257680872151,1.859791358279716e-07
2.398,-0.047908665758176414,1.8545861767512915e-07
2.399,-0.04152084365708622,1.849297175597792e-07
2.4,-0.025551288404360755,1.8440021195914489e-07
2.401,-0.012775644202180378,1.838681439139507e-07
2.402,-0.0031939110505450944,1.8333873099354108e-07
2.403,0.0031939110505450944,1.8283096132695559e-07
2.404,0.009581733151635281,1.8233309669221044e-07
2.405,0.006387822101090189,1.818346040969302e-07
2.406,0.01596955525272547,1.8133907014114343e-07
2.407,0.009581733151635281,1.8085009973344792e-07
2.408,0.0,1.8036131725635372e-07
2.409,-0.012775644202180378,1.7987681849091207e-07
2.41,-0.025551288404360755,1.7938942140050117e-07
2.411,-0.035133021555996034,1.7887607909366066e-07
2.412,-0.04471475470763132,1.78350783634097e-07
2.413,-0.047908665758176414,1.7782602130069033e-07
2.414,-0.03193911050545094,1.7729715337646692e-07
2.415,-0.038326932606541124,1.7676042760027167e-07
2.416,-0.01596955525272547,1.7622314174688084e-07
2.417,-0.0031939110505450944,1.7567681503908825e-07
2.418,-0.012775644202180378,1.7513288628830214e-07
2.419,0.0031939110505450944,1.7462323069491436e-07
2.42,0.009581733151635281,1.741254579313971e-07
2.421,0.019163466303270562,1.736352170833817e-07
2.422,0.01596955525272547,1.7314653896621062e-07
2.423,0.009581733151635281,1.7263508177103566e-07
2.424,-0.0031939110505450944,1.7211626199756637e-07
2.425,-0.02235737735381566,1.7159061646284038e-07
2.426,-0.038326932606541124,1.7106125717818543e-07
2.427,-0.04471475470763132,1.705527656723931e-07
2.428,-0.04471475470763132,1.7004892295649364e-07
