Tiempo,EMG_mV_raw,EMG_mV_filtrado
0.0,0.012775644202180378,-0.006764230825836852
0.001,0.009581733151635281,-0.006691879988744659
0.002,-0.02235737735381566,-0.006605455072236616
0.003,-0.04152084365708622,-0.006452242187233503
0.004,-0.02235737735381566,-0.006261387845767407
0.005,-0.006387822101090189,-0.0060795008297714675
0.006,0.028745199454905845,-0.005880925216347544
0.007,0.035133021555996034,-0.00561667770974453
0.008,0.038326932606541124,-0.005338333530877454
0.009,0.028745199454905845,-0.005023758770099983
0.01,0.009581733151635281,-0.0047148889061624545
0.011,-0.0031939110505450944,-0.004561334255024355
0.012,-0.006387822101090189,-0.004468545382070803
0.013,-0.009581733151635281,-0.004349799905334856
0.014,-0.01596955525272547,-0.004235200963183283
0.015,-0.03193911050545094,-0.004149526970137019
0.016,-0.04471475470763132,-0.004038924592744059
0.017,-0.04152084365708622,-0.003965316533476495
0.018,-0.025551288404360755,-0.0038419279617086977
0.019,-0.02235737735381566,-0.003437411340607121
0.02,-0.01596955525272547,-0.0029146156377932615
0.021,-0.03193911050545094,-0.0022818090983330775
0.022,-0.012775644202180378,-0.0015985890435644074
0.023,0.006387822101090189,-0.0010839768257839024
0.024,0.009581733151635281,-0.0005844671191777321
0.025,0.0031939110505450944,-0.00010890089430725262
0.026,0.006387822101090189,0.00039543276985781273
0.027,0.012775644202180378,0.001212625239063563
0.028,-0.01596955525272547,0.0021583415102913745
0.029,-0.009581733151635281,0.0029970835964306403
0.03,-0.006387822101090189,0.003828486900672708
0.031,-0.006387822101090189,0.004816111735453648
0.032,-0.06387822101090188,0.005736225728335801
0.033,-0.047908665758176414,0.006735329987458459
0.034,-0.025551288404360755,0.007562865909605574
0.035,-0.028745199454905845,0.007480862521659566
0.036,-0.025551288404360755,0.006977803726556682
0.037,-0.025551288404360755,0.0062261412683406485
0.038,-0.019163466303270562,0.005282445994867478
0.039,-0.0031939110505450944,0.004510066359741751
0.04,0.009581733151635281,0.003706669670485167
0.041,0.009581733151635281,0.002823237015370278
0.042,0.0031939110505450944,0.0018639105338492832
0.043,0.0,0.0006285367758411497
0.044,-0.019163466303270562,-0.0007444871496367671
0.045,-0.019163466303270562,-0.001994847319176705
0.046,-0.012775644202180378,-0.0032478569569836494
0.047,-0.038326932606541124,-0.0047660312575798685
0.048,-0.05110257680872151,-0.006232390417025547
0.049,-0.05429648785926659,-0.00780366303119884
0.05,-0.05749039890981169,-0.009174747775690386
0.051,-0.05110257680872151,-0.009411438323882039
0.052,-0.05429648785926659,-0.009118307127909087
0.053,-0.05429648785926659,-0.008567052561303317
0.054,-0.05749039890981169,-0.007777739917713592
0.055,-0.04471475470763132,-0.007081868339853426
0.056,-0.025551288404360755,-0.006330583070665909
0.057,-0.03193911050545094,-0.0054333405274549045
0.058,-0.025551288404360755,-0.00445736540068584
0.059,-0.02235737735381566,-0.0034117517195642413
0.06,-0.028745199454905845,-0.0023038151040114863
0.061,-0.038326932606541124,-0.0012709866492547329
0.062,-0.03193911050545094,-0.00023156546203555606
0.063,-0.025551288404360755,0.0010338146848069057
0.064,-0.009581733151635281,0.002287970739409189
0.065,-0.009581733151635281,0.003615101166195949
0.066,-0.006387822101090189,0.004819803296271455
0.067,-0.025551288404360755,0.005280856884079233
0.068,-0.01596955525272547,0.0053932384541750256
0.069,0.0,0.005360328740570155
0.07,-0.019163466303270562,0.005172246724700172
0.071,-0.012775644202180378,0.0049919816193916096
0.072,0.009581733151635281,0.004767253503465341
0.073,0.009581733151635281,0.0044256194058039456
0.074,0.006387822101090189,0.0040376689405291835
0.075,0.0,0.003723166293957049
0.076,0.006387822101090189,0.003413900496735037
0.077,-0.0031939110505450944,0.003113508538149064
0.078,-0.006387822101090189,0.0028035307889172382
0.079,0.0,0.0023948585442387493
0.08,-0.006387822101090189,0.001966300267075556
0.081,-0.025551288404360755,0.001510759733884086
0.082,-0.03193911050545094,0.0010721473436127033
0.083,-0.03193911050545094,0.0008045141388147802
0.084,-0.03193911050545094,0.0006131423726447743
0.085,-0.04152084365708622,0.0004411711487895807
0.086,-0.009581733151635281,0.0002990119138968899
0.087,0.0,0.0001653676581071492
0.088,-0.0031939110505450944,3.8876151304344974e-05
0.089,0.006387822101090189,-5.847753235022111e-05
0.09,0.006387822101090189,-0.00015140763810581506
0.091,0.009581733151635281,-0.0003045494540680725
0.092,0.009581733151635281,-0.0004778509783389542
0.093,0.006387822101090189,-0.0006424062485231573
0.094,-0.009581733151635281,-0.0008057322928902219
0.095,-0.012775644202180378,-0.0009669780612586005
0.096,-0.012775644202180378,-0.0011169455619808302
0.097,-0.02235737735381566,-0.0012684554589599151
0.098,-0.04152084365708622,-0.0014036862166124423
0.099,-0.05110257680872151,-0.0014721586643296827
0.1,-0.035133021555996034,-0.0015059743290578229
0.101,-0.04152084365708622,-0.0015237738740305445
0.102,-0.025551288404360755,-0.0015233399144100697
0.103,-0.012775644202180378,-0.0015140964201215965
0.104,-0.019163466303270562,-0.0014955496833179262
0.105,-0.028745199454905845,-0.0014610171364721133
0.106,-0.019163466303270562,-0.0014186691061165903
0.107,-0.006387822101090189,-0.0013872891973339973
0.108,0.009581733151635281,-0.0013559198112606358
0.109,0.02235737735381566,-0.001319219562727823
0.11,0.01596955525272547,-0.001278120281462508
0.111,-0.012775644202180378,-0.0012282811859135058
0.112,-0.012775644202180378,-0.0011718827031512123
0.113,-0.006387822101090189,-0.0011124600049192885
0.114,-0.03193911050545094,-0.0010478406683456338
0.115,-0.038326932606541124,-0.0009740863220296862
0.116,-0.03193911050545094,-0.0008950913359186048
0.117,-0.04152084365708622,-0.0008087604053630164
0.118,-0.047908665758176414,-0.0007188760666403097
0.119,-0.03193911050545094,-0.0006358184315798124
0.12,-0.019163466303270562,-0.000551990218119215
0.121,-0.01596955525272547,-0.00046893167809610716
0.122,-0.006387822101090189,-0.00038324435052750175
0.123,0.0031939110505450944,-0.0002779503401066351
0.124,0.009581733151635281,-0.00016422155756412124
0.125,0.0031939110505450944,-5.645983978976608e-05
0.126,-0.0031939110505450944,5.12637701206291e-05
0.127,0.009581733151635281,0.00016919832085438417
0.128,0.0031939110505450944,0.00028347987075633607
0.129,0.006387822101090189,0.00040166675878801643
0.13,0.0,0.0005094942826884902
0.131,-0.006387822101090189,0.0005634448765972458
0.132,-0.038326932606541124,0.0005912235998919571
0.133,-0.025551288404360755,0.0006073222533758769
0.134,-0.028745199454905845,0.0006109255836441717
0.135,-0.025551288404360755,0.0006130894954151009
0.136,-0.012775644202180378,0.0006105545930777724
0.137,-0.01596955525272547,0.0005981812722180178
0.138,-0.0031939110505450944,0.0005811895976408978
0.139,-0.0031939110505450944,0.0005689225723185264
0.14,0.0,0.0005560641513774116
0.141,0.009581733151635281,0.000542324818272591
0.142,0.006387822101090189,0.0005266717887424209
0.143,0.006387822101090189,0.0005031513583297804
0.144,0.009581733151635281,0.0004768985404097545
0.145,0.0,0.00044785998883690493
0.146,-0.028745199454905845,0.0004185541154614182
0.147,-0.038326932606541124,0.00039815915819875697
0.148,-0.006387822101090189,0.0003812223844533575
0.149,-0.01596955525272547,0.00036397928090316266
0.15,-0.05110257680872151,0.0003475196442950363
0.151,-0.028745199454905845,0.0003316935829572453
0.152,-0.025551288404360755,0.0003155798981690245
0.153,-0.01596955525272547,0.0003007497513314522
0.154,-0.02235737735381566,0.0002852860271104908
0.155,-0.02235737735381566,0.0002632539256261027
0.156,-0.006387822101090189,0.00023843904232664516
0.157,0.006387822101090189,0.00021423706273780875
0.158,0.0031939110505450944,0.0001895673461310297
0.159,0.0,0.000163458590844619
0.16,-0.012775644202180378,0.00013796770519498676
0.161,-0.02235737735381566,0.00011145161371220046
0.162,-0.012775644202180378,8.661701204962488e-05
0.163,-0.012775644202180378,7.134593198941077e-05
0.164,-0.025551288404360755,6.0623273729780066e-05
0.165,-0.035133021555996034,5.1924555412243906e-05
0.166,-0.035133021555996034,4.533321612710426e-05
0.167,-0.05429648785926659,3.8671771272155107e-05
0.168,-0.05429648785926659,3.2706317074526935e-05
0.169,-0.03193911050545094,2.833022913088335e-05
0.17,-0.019163466303270562,2.4714609020261438e-05
0.171,-0.009581733151635281,2.059209514965345e-05
0.172,-0.009581733151635281,1.6672315199025865e-05
0.173,-0.0031939110505450944,1.2753759577441404e-05
0.174,0.0031939110505450944,9.131814351042476e-06
0.175,0.0,7.002861923104606e-06
0.176,-0.0031939110505450944,5.256873886555852e-06
0.177,-0.0031939110505450944,4.097912565580307e-06
0.178,-0.009581733151635281,2.808318017185171e-06
0.179,-0.012775644202180378,-1.009765049174355e-06
0.18,-0.009581733151635281,-5.842041657249108e-06
0.181,-0.02235737735381566,-1.092860679410231e-05
0.182,-0.038326932606541124,-1.6302055832819895e-05
0.183,-0.035133021555996034,-2.1312247214399822e-05
0.184,-0.035133021555996034,-2.6196273816195843e-05
0.185,-0.025551288404360755,-3.122518326913005e-05
0.186,-0.01596955525272547,-3.6159681847491775e-05
0.187,0.0,-4.062719691703133e-05
0.188,0.02235737735381566,-4.4840945067106195e-05
0.189,0.019163466303270562,-4.877274542861694e-05
0.19,0.0,-5.2495048987731614e-05
0.191,0.01596955525272547,-5.6309424390935716e-05
0.192,0.025551288404360755,-5.994157668372782e-05
0.193,0.012775644202180378,-6.346513317228359e-05
0.194,-0.012775644202180378,-6.668478706184636e-05
0.195,0.0,-6.898790551498256e-05
0.196,-0.009581733151635281,-7.078671133359468e-05
0.197,-0.009581733151635281,-7.216667347915955e-05
0.198,-0.006387822101090189,-7.322143691715963e-05
0.199,-0.02235737735381566,-7.437166776926717e-05
0.2,-0.04152084365708622,-7.53410079142498e-05
0.201,-0.03193911050545094,-7.611969111166069e-05
0.202,-0.019163466303270562,-7.66400092657806e-05
0.203,-0.019163466303270562,-7.646543798872247e-05
0.204,-0.0031939110505450944,-7.588216498906312e-05
0.205,0.0031939110505450944,-7.526865098922632e-05
0.206,0.028745199454905845,-7.44626916220982e-05
0.207,0.012775644202180378,-7.319394223726341e-05
0.208,0.009581733151635281,-7.183217859644726e-05
0.209,0.01596955525272547,-7.012519011858762e-05
0.21,0.0031939110505450944,-6.849688423217292e-05
0.211,0.006387822101090189,-6.817495946503584e-05
0.212,0.0,-6.833626932509931e-05
0.213,-0.0031939110505450944,-6.87529578102716e-05
0.214,-0.006387822101090189,-6.928006215324016e-05
0.215,-0.025551288404360755,-6.917944131379274e-05
0.216,-0.025551288404360755,-6.890259497174854e-05
0.217,-0.019163466303270562,-6.851561122750377e-05
0.218,-0.02235737735381566,-6.806835320814364e-05
0.219,-0.01596955525272547,-6.815513366272181e-05
0.22,-0.012775644202180378,-6.839199380832119e-05
0.221,0.0,-6.810896140743122e-05
0.222,-0.006387822101090189,-6.763539921231861e-05
0.223,-0.0031939110505450944,-6.763959031862025e-05
0.224,0.006387822101090189,-6.733651464740356e-05
0.225,0.019163466303270562,-6.709720810349473e-05
0.226,0.0,-6.619637679217082e-05
0.227,-0.0031939110505450944,-6.233035411690958e-05
0.228,-0.012775644202180378,-5.6974388083945114e-05
0.229,-0.03193911050545094,-5.098093589345329e-05
0.23,-0.04152084365708622,-4.425881804296472e-05
0.231,-0.04152084365708622,-3.7259851498417034e-05
0.232,-0.025551288404360755,-2.9955191159096775e-05
0.233,-0.025551288404360755,-2.203784275428786e-05
0.234,-0.035133021555996034,-1.388895876388608e-05
0.235,-0.04471475470763132,-6.3583313399915385e-06
0.236,-0.025551288404360755,1.0479173973001208e-06
0.237,-0.012775644202180378,8.518058297264836e-06
0.238,-0.012775644202180378,1.6042399174912654e-05
0.239,-0.02235737735381566,2.3914392017187543e-05
0.24,-0.019163466303270562,3.194118325392051e-05
0.241,0.006387822101090189,3.995851307719612e-05
0.242,-0.012775644202180378,4.802388200750082e-05
0.243,-0.0031939110505450944,5.612182088343205e-05
0.244,-0.012775644202180378,6.417126967637645e-05
0.245,-0.006387822101090189,7.247694579462268e-05
0.246,-0.01596955525272547,8.073258550327648e-05
0.247,-0.025551288404360755,8.81955628836257e-05
0.248,-0.035133021555996034,9.547762173054569e-05
0.249,-0.035133021555996034,0.00010238258770767927
0.25,-0.038326932606541124,0.00010928384687234827
0.251,-0.03193911050545094,0.0001177247962504781
0.252,-0.03193911050545094,0.00012668890604660695
0.253,-0.035133021555996034,0.0001351333989733764
0.254,-0.012775644202180378,0.0001434221263454344
0.255,0.0,0.00015198406748380836
0.256,0.02235737735381566,0.00016003717669354714
0.257,0.006387822101090189,0.00016825717130857277
0.258,0.0031939110505450944,0.0001755748784041791
0.259,0.028745199454905845,0.0001790608930804794
0.26,0.02235737735381566,0.00018069285941274646
0.261,0.006387822101090189,0.000180788479001377
0.262,-0.006387822101090189,0.00017986302732373818
0.263,-0.0031939110505450944,0.00018011167970250923
0.264,0.0031939110505450944,0.0001800445751347863
0.265,-0.01596955525272547,0.0001796341390888567
0.266,-0.04152084365708622,0.00017846854117020296
0.267,-0.028745199454905845,0.00017407969737004002
0.268,-0.012775644202180378,0.00016805321373709788
0.269,-0.019163466303270562,0.00016252606882280265
0.27,-0.02235737735381566,0.00015655047962770212
0.271,-0.025551288404360755,0.0001485142802763399
0.272,-0.01596955525272547,0.00014053513708245006
0.273,-0.0031939110505450944,0.00013124321479676576
0.274,0.0,0.00012296750205132245
0.275,0.0,0.00012261800823446095
0.276,0.012775644202180378,0.00012559600978490746
0.277,0.0,0.00013027033169437632
0.278,-0.028745199454905845,0.00013610146205164243
0.279,-0.035133021555996034,0.00013963558624817627
0.28,-0.006387822101090189,0.0001427652889364148
0.281,0.0031939110505450944,0.000146068671967864
0.282,-0.01596955525272547,0.00014937638884523994
0.283,-0.038326932606541124,0.00015438430745509367
0.284,-0.025551288404360755,0.00015998985799392428
0.285,-0.0031939110505450944,0.00016330911323359876
0.286,-0.03193911050545094,0.00016592273893890303
0.287,-0.04152084365708622,0.00017150225299447918
0.288,-0.025551288404360755,0.0001760813019519915
0.289,0.006387822101090189,0.00018099320456192153
0.29,0.006387822101090189,0.00018312760850061372
0.291,-0.019163466303270562,0.00017187571725920967
0.292,-0.009581733151635281,0.00015378422299564478
0.293,-0.009581733151635281,0.000134143518300708
0.294,0.0031939110505450944,0.00011133685230686893
0.295,-0.009581733151635281,8.440056154092489e-05
0.296,-0.02235737735381566,5.5850117244766646e-05
0.297,-0.03193911050545094,2.3622529512547753e-05
0.298,-0.04152084365708622,-8.960133044753305e-06
0.299,-0.038326932606541124,-3.155254674360761e-05
0.3,-0.035133021555996034,-5.0459450036010695e-05
0.301,-0.03193911050545094,-7.112996395017793e-05
0.302,-0.03193911050545094,-9.16223067526454e-05
0.303,-0.02235737735381566,-0.00011056047837100454
0.304,-0.012775644202180378,-0.00013092796537582567
0.305,-0.0031939110505450944,-0.00014914232278952607
0.306,0.006387822101090189,-0.00017002491580985255
0.307,0.0,-0.00020695919347872324
0.308,0.0031939110505450944,-0.00025059200642732623
0.309,0.006387822101090189,-0.00029899710421108704
0.31,0.0,-0.0003497928148426566
0.311,0.0,-0.00039303698877497843
0.312,-0.009581733151635281,-0.0004349854031006363
0.313,-0.006387822101090189,-0.000475991197681676
0.314,-0.019163466303270562,-0.000517190715167171
0.315,-0.025551288404360755,-0.0005682816874016637
0.316,-0.02235737735381566,-0.0006229154849176132
0.317,-0.03193911050545094,-0.0006707166823583089
0.318,-0.025551288404360755,-0.0007165652669316039
0.319,-0.02235737735381566,-0.0007702512000468108
0.32,-0.019163466303270562,-0.0008200118237383182
0.321,-0.012775644202180378,-0.0008711920521387101
0.322,-0.01596955525272547,-0.000912996402690046
0.323,-0.012775644202180378,-0.0009110152581100641
0.324,-0.012775644202180378,-0.0008869802539079965
0.325,-0.009581733151635281,-0.0008544256479562902
0.326,-0.0031939110505450944,-0.0008111114264269169
0.327,0.012775644202180378,-0.0007616189899568368
0.328,0.006387822101090189,-0.0007072175299877989
0.329,-0.01596955525272547,-0.0006429277204658744
0.33,-0.047908665758176414,-0.000575295511390252
0.331,-0.04152084365708622,-0.0005210670704252081
0.332,-0.009581733151635281,-0.00047027861634247486
0.333,-0.025551288404360755,-0.0004166010810329499
0.334,-0.01596955525272547,-0.0003617280861580516
0.335,-0.025551288404360755,-0.0003040850074509622
0.336,-0.019163466303270562,-0.00024302367160252252
0.337,-0.01596955525272547,-0.00018269660689006114
0.338,-0.009581733151635281,-0.00011890735742056812
0.339,0.009581733151635281,-4.120664590278817e-05
0.34,0.006387822101090189,4.2495803555368565e-05
0.341,0.01596955525272547,0.00013221852395275344
0.342,-0.0031939110505450944,0.00022439169171524926
0.343,-0.009581733151635281,0.0003070949556321232
0.344,0.009581733151635281,0.00038846360573379437
0.345,-0.012775644202180378,0.0004678608544750313
0.346,0.0,0.0005479244016342316
0.347,-0.009581733151635281,0.0006441916274108149
0.348,-0.03193911050545094,0.0007464878005285597
0.349,-0.028745199454905845,0.0008403850720759291
0.35,-0.025551288404360755,0.0009322125281951779
0.351,-0.01596955525272547,0.0010336986160657433
0.352,0.006387822101090189,0.0011298979528365281
0.353,0.028745199454905845,0.0012283724004211341
0.354,0.02235737735381566,0.001314502737586226
0.355,0.012775644202180378,0.0013428039567863967
0.356,0.012775644202180378,0.0013421761166884458
0.357,0.012775644202180378,0.0013289474993360103
0.358,0.03193911050545094,0.0013014057836804723
0.359,0.05110257680872151,0.0012688341599484437
0.36,0.028745199454905845,0.001229977757515092
0.361,0.006387822101090189,0.0011789726903940643
0.362,0.0031939110505450944,0.0011226465587502426
0.363,-0.006387822101090189,0.001075984317611691
0.364,-0.012775644202180378,0.0010302509153054602
0.365,-0.025551288404360755,0.0009818092435614904
0.366,-0.025551288404360755,0.0009309739412101214
0.367,-0.035133021555996034,0.0008732211410023517
0.368,-0.028745199454905845,0.0008113827338144109
0.369,-0.028745199454905845,0.0007477555841061779
0.37,-0.006387822101090189,0.0006815814877415701
0.371,-0.009581733151635281,0.0006127619439389314
0.372,-0.0031939110505450944,0.0005423453831571921
0.373,0.02235737735381566,0.00046792935504317966
0.374,0.012775644202180378,0.000392261283164921
0.375,0.0031939110505450944,0.0003220602325303339
0.376,-0.012775644202180378,0.00025210362819171744
0.377,-0.012775644202180378,0.00018379642321097263
0.378,-0.01596955525272547,0.00011439551351989842
0.379,-0.025551288404360755,3.121320931979748e-05
0.38,-0.035133021555996034,-5.7467310585160316e-05
0.381,-0.028745199454905845,-0.0001413115354288535
0.382,-0.035133021555996034,-0.00022452863025699703
0.383,-0.04152084365708622,-0.0003141793089440769
0.384,-0.047908665758176414,-0.0004005999125505853
0.385,-0.047908665758176414,-0.0004891729648022795
0.386,-0.038326932606541124,-0.0005698551523140103
0.387,-0.038326932606541124,-0.0006119905095236279
0.388,-0.025551288404360755,-0.0006350987855400495
0.389,-0.006387822101090189,-0.000649548859075353
0.39,-0.0031939110505450944,-0.0006546620631323429
0.391,-0.006387822101090189,-0.0006579428910107891
0.392,-0.012775644202180378,-0.0006573774498398372
0.393,0.0,-0.0006492866625361508
0.394,0.0,-0.00063753176961105
0.395,-0.025551288404360755,-0.0006293736422410358
0.396,-0.01596955525272547,-0.0006206632616142789
0.397,-0.012775644202180378,-0.0006107772943960661
0.398,-0.02235737735381566,-0.0005991707653198532
0.399,-0.038326932606541124,-0.0005818655197556544
0.4,-0.025551288404360755,-0.0005621664742285857
0.401,-0.02235737735381566,-0.0005403453203251908
0.402,-0.028745199454905845,-0.0005177487594587751
0.403,-0.038326932606541124,-0.0004996166478918689
0.404,-0.04152084365708622,-0.00048297446489522464
0.405,0.009581733151635281,-0.0004653554215549193
0.406,0.012775644202180378,-0.00044775175581509554
0.407,0.0,-0.0004309726271900547
0.408,-0.01596955525272547,-0.00041380329363152916
0.409,-0.0031939110505450944,-0.0003973366037920856
0.41,-0.01596955525272547,-0.0003801138345479241
0.411,-0.025551288404360755,-0.00035705842730999245
0.412,-0.009581733151635281,-0.00033144390370667325
0.413,-0.02235737735381566,-0.0003065757723203983
0.414,-0.025551288404360755,-0.0002812935680629005
0.415,-0.047908665758176414,-0.00025414272495333733
0.416,-0.04471475470763132,-0.00022755941688373693
0.417,-0.025551288404360755,-0.00019989136394683014
0.418,-0.01596955525272547,-0.00017401667247242639
0.419,-0.025551288404360755,-0.00015846396395870877
0.42,-0.019163466303270562,-0.00014780480479653258
0.421,-0.019163466303270562,-0.0001392988761622282
0.422,0.0,-0.00013304023459963926
0.423,0.0031939110505450944,-0.00012668395283224734
0.424,0.006387822101090189,-0.00012104519586183884
0.425,-0.006387822101090189,-0.00011709413477032146
0.426,-0.01596955525272547,-0.00011392267784155056
0.427,-0.02235737735381566,-0.00011012488610878284
0.428,-0.028745199454905845,-0.00010648895199343928
0.429,-0.025551288404360755,-0.00010280910219463373
0.43,-0.025551288404360755,-9.940124778924551e-05
0.431,-0.02235737735381566,-9.756571835534274e-05
0.432,-0.006387822101090189,-9.61011963336678e-05
0.433,-0.012775644202180378,-9.521160678699609e-05
0.434,-0.05110257680872151,-9.413561179469255e-05
0.435,-0.028745199454905845,-9.03084638373443e-05
0.436,0.006387822101090189,-8.53402219701336e-05
0.437,-0.0031939110505450944,-8.008109719052315e-05
0.438,0.0,-7.445984450223697e-05
0.439,-0.009581733151635281,-6.908295320401455e-05
0.44,-0.012775644202180378,-6.377176001072937e-05
0.441,-0.0031939110505450944,-5.8211051538156984e-05
0.442,0.0,-5.270493364623794e-05
0.443,0.0,-4.7842796695010704e-05
0.444,-0.012775644202180378,-4.327036628031229e-05
0.445,-0.025551288404360755,-3.8900176383811694e-05
0.446,-0.02235737735381566,-3.469187930231721e-05
0.447,-0.02235737735381566,-3.035306157785103e-05
0.448,-0.05429648785926659,-2.610127678260633e-05
0.449,-0.04152084365708622,-2.1942839673372134e-05
0.45,-0.035133021555996034,-1.7962153017040975e-05
0.451,-0.025551288404360755,-1.4494100723379046e-05
0.452,-0.01596955525272547,-1.1321922323594752e-05
0.453,-0.009581733151635281,-8.342157820677854e-06
0.454,0.0,-5.551595617237273e-06
0.455,0.009581733151635281,-2.842487321660392e-06
0.456,0.012775644202180378,-2.5740656141477154e-07
0.457,0.02235737735381566,2.1698305718604127e-06
0.458,0.038326932606541124,4.469501098040641e-06
0.459,0.04152084365708622,6.669578192154309e-06
0.46,0.006387822101090189,8.758672452949445e-06
0.461,-0.012775644202180378,1.0767089268316121e-05
0.462,0.0,1.2675335646007688e-05
0.463,0.0031939110505450944,1.4421344441045294e-05
0.464,-0.01596955525272547,1.6071485472883156e-05
0.465,-0.038326932606541124,1.7606493804542792e-05
0.466,-0.028745199454905845,1.9078473715075758e-05
0.467,-0.035133021555996034,2.0650793746206983e-05
0.468,-0.035133021555996034,2.2220971387336742e-05
0.469,-0.02235737735381566,2.37419790227831e-05
0.47,-0.01596955525272547,2.521376997359164e-05
0.471,-0.02235737735381566,2.6584529701351285e-05
0.472,-0.012775644202180378,2.7878338104891814e-05
0.473,0.0031939110505450944,2.9114819150647977e-05
0.474,0.01596955525272547,3.0280872075003307e-05
0.475,0.0031939110505450944,3.136645627576795e-05
0.476,0.006387822101090189,3.237954867589808e-05
0.477,-0.0031939110505450944,3.329998695589873e-05
0.478,-0.012775644202180378,3.414533843056572e-05
0.479,-0.0031939110505450944,3.496390367647618e-05
0.48,-0.006387822101090189,3.571181826481382e-05
0.481,-0.009581733151635281,3.640042931175835e-05
0.482,-0.03193911050545094,3.700144888135722e-05
0.483,-0.035133021555996034,3.740884413079788e-05
0.484,-0.02235737735381566,3.7689625872706246e-05
0.485,-0.025551288404360755,3.790383822189657e-05
0.486,-0.02235737735381566,3.803229859226501e-05
0.487,-0.006387822101090189,3.8055960941588265e-05
0.488,-0.0031939110505450944,3.801131095799967e-05
0.489,0.01596955525272547,3.7876112311631256e-05
0.49,0.01596955525272547,3.7691634816915745e-05
0.491,0.0,3.758799493778556e-05
0.492,0.0,3.748752791265215e-05
0.493,0.019163466303270562,3.7321742471832866e-05
0.494,0.028745199454905845,3.711701866450062e-05
0.495,0.0031939110505450944,3.68938544991588e-05
0.496,-0.009581733151635281,3.661344346911e-05
0.497,-0.019163466303270562,3.6324236063705353e-05
0.498,-0.04152084365708622,3.5963443640681606e-05
0.499,-0.03193911050545094,3.5355772389581936e-05
0.5,-0.04152084365708622,3.4626310327313505e-05
0.501,-0.038326932606541124,3.379733606297469e-05
0.502,-0.025551288404360755,3.2905042050558596e-05
0.503,-0.04152084365708622,3.2090623041375185e-05
0.504,-0.03193911050545094,3.126464855695172e-05
0.505,-0.025551288404360755,3.0426690800620364e-05
0.506,-0.0031939110505450944,2.955702596081235e-05
0.507,-0.012775644202180378,2.850770034423273e-05
0.508,-0.009581733151635281,2.7377675098848093e-05
0.509,0.0031939110505450944,2.6315130008300296e-05
0.51,-0.006387822101090189,2.5254646854221116e-05
0.511,-0.009581733151635281,2.4070538300895112e-05
0.512,-0.012775644202180378,2.29222914537501e-05
0.513,-0.006387822101090189,2.1730790713811153e-05
0.514,-0.025551288404360755,2.0651358726673643e-05
0.515,-0.012775644202180378,2.0163988782255075e-05
0.516,-0.009581733151635281,1.9963493910351656e-05
0.517,-0.04152084365708622,1.9886323022114017e-05
0.518,-0.035133021555996034,1.994441477167032e-05
0.519,-0.035133021555996034,2.0023446251355297e-05
0.52,-0.03193911050545094,2.015242157082895e-05
0.521,-0.009581733151635281,2.0389733800787062e-05
0.522,-0.0031939110505450944,2.0673466360288444e-05
0.523,0.006387822101090189,2.0883618866653917e-05
0.524,0.009581733151635281,2.108933467835e-05
0.525,0.0,2.130494842831354e-05
0.526,0.006387822101090189,2.1537329354742166e-05
0.527,0.0,2.184647376981037e-05
0.528,-0.009581733151635281,2.218436979674495e-05
0.529,-0.019163466303270562,2.2544031825113765e-05
0.53,-0.028745199454905845,2.290898267101987e-05
0.531,-0.04152084365708622,2.3210256045117268e-05
0.532,-0.04152084365708622,2.3485810771721204e-05
0.533,-0.04471475470763132,2.3771792579873568e-05
0.534,-0.047908665758176414,2.405133714729005e-05
0.535,-0.04152084365708622,2.4304328507114858e-05
0.536,-0.02235737735381566,2.455437390597683e-05
0.537,-0.02235737735381566,2.4785318958212287e-05
0.538,-0.035133021555996034,2.5020345507258892e-05
0.539,-0.012775644202180378,2.5344493591834038e-05
0.54,-0.006387822101090189,2.570311948566568e-05
0.541,-0.006387822101090189,2.6037566404800484e-05
0.542,0.0031939110505450944,2.636972594684673e-05
0.543,0.0,2.6730278942717743e-05
0.544,-0.01596955525272547,2.707241982597216e-05
0.545,-0.01596955525272547,2.7425624379169013e-05
0.546,-0.012775644202180378,2.7737504000935972e-05
0.547,-0.019163466303270562,2.7850060131414306e-05
0.548,-0.028745199454905845,2.7863800841337815e-05
0.549,-0.019163466303270562,2.7832727593602217e-05
0.55,-0.035133021555996034,2.7752857052262145e-05
0.551,-0.03193911050545094,2.7661631954905704e-05
0.552,-0.025551288404360755,2.754975549341693e-05
0.553,-0.012775644202180378,2.7397991251194268e-05
0.554,-0.019163466303270562,2.722689390618342e-05
0.555,-0.012775644202180378,2.7076529612462893e-05
0.556,-0.0031939110505450944,2.6923853036457277e-05
0.557,0.0,2.676382688145175e-05
0.558,0.0,2.659437905366439e-05
0.559,0.006387822101090189,2.6396003756113472e-05
0.56,0.0,2.6184253102232124e-05
0.561,-0.009581733151635281,2.5961695450006283e-05
0.562,-0.009581733151635281,2.5733438809663704e-05
0.563,-0.0031939110505450944,2.552118097797815e-05
0.564,-0.0031939110505450944,2.531317187516183e-05
0.565,-0.028745199454905845,2.509779280060173e-05
0.566,-0.025551288404360755,2.4880732518818337e-05
0.567,-0.025551288404360755,2.4669210873094865e-05
0.568,-0.03193911050545094,2.445518951451884e-05
0.569,-0.019163466303270562,2.4243944378636305e-05
0.57,-0.012775644202180378,2.4027904485832598e-05
0.571,-0.006387822101090189,2.3778810294836964e-05
0.572,-0.009581733151635281,2.3514891187575232e-05
0.573,-0.006387822101090189,2.325599526128461e-05
0.574,0.01596955525272547,2.2994688902931436e-05
0.575,0.0031939110505450944,2.2720292239283712e-05
0.576,-0.019163466303270562,2.2448929155667956e-05
0.577,-0.01596955525272547,2.2170717349374007e-05
0.578,0.006387822101090189,2.1903468964856362e-05
0.579,0.019163466303270562,2.1701036530324367e-05
0.58,0.006387822101090189,2.1529272101191574e-05
0.581,-0.012775644202180378,2.1369514506463264e-05
0.582,-0.025551288404360755,2.1223418278746993e-05
0.583,-0.02235737735381566,2.1078930803379066e-05
0.584,-0.028745199454905845,2.09386700814237e-05
0.585,-0.019163466303270562,2.0809376498289525e-05
0.586,-0.006387822101090189,2.0683727319695636e-05
0.587,0.0,2.0546677963537082e-05
0.588,-0.0031939110505450944,2.0407017380902472e-05
0.589,0.006387822101090189,2.026746769867311e-05
0.59,0.009581733151635281,2.012838634282512e-05
0.591,0.009581733151635281,1.999595474267401e-05
0.592,0.0,1.9865678348236846e-05
0.593,0.006387822101090189,1.9736083232971776e-05
0.594,0.0031939110505450944,1.960644661701115e-05
0.595,-0.006387822101090189,1.9472218268993133e-05
0.596,-0.01596955525272547,1.9335532564562773e-05
0.597,-0.01596955525272547,1.919988225383714e-05
0.598,-0.038326932606541124,1.9062995104780977e-05
0.599,-0.028745199454905845,1.892066993655631e-05
0.6,-0.028745199454905845,1.87767686551607e-05
0.601,-0.03193911050545094,1.8629670074746402e-05
0.602,-0.01596955525272547,1.848211716000029e-05
0.603,-0.0031939110505450944,1.8345257099605577e-05
0.604,0.0,1.8211953393564863e-05
0.605,0.0,1.807378096402227e-05
0.606,0.006387822101090189,1.7934142096316093e-05
0.607,0.01596955525272547,1.779842771655168e-05
0.608,0.012775644202180378,1.7659175088359214e-05
0.609,0.01596955525272547,1.7520679784933444e-05
0.61,0.006387822101090189,1.737510476820219e-05
0.611,-0.012775644202180378,1.719833722763124e-05
0.612,-0.009581733151635281,1.7005723301591497e-05
0.613,-0.02235737735381566,1.680597348384499e-05
0.614,-0.03193911050545094,1.6598172043810346e-05
0.615,-0.06387822101090188,1.6387200548647673e-05
0.616,-0.05749039890981169,1.6172467691363776e-05
0.617,-0.060684309960356786,1.5950855714172824e-05
0.618,-0.05429648785926659,1.572604925102218e-05
0.619,-0.04471475470763132,1.5506168982170566e-05
0.62,-0.04152084365708622,1.52864949700036e-05
0.621,-0.047908665758176414,1.5065056125289746e-05
0.622,-0.02235737735381566,1.4842041753178156e-05
0.623,0.0031939110505450944,1.461502130956183e-05
0.624,-0.0031939110505450944,1.4385519251909984e-05
0.625,-0.009581733151635281,1.4154843925165687e-05
0.626,-0.01596955525272547,1.3922535139429367e-05
0.627,-0.028745199454905845,1.3688433072952406e-05
0.628,-0.025551288404360755,1.3453226147156269e-05
0.629,-0.012775644202180378,1.3215487595925275e-05
0.63,-0.04152084365708622,1.2976873560829651e-05
0.631,-0.05429648785926659,1.2741456526720003e-05
0.632,-0.047908665758176414,1.2506067773649845e-05
0.633,-0.04471475470763132,1.2271583232055389e-05
0.634,-0.02235737735381566,1.2036311855136339e-05
0.635,-0.012775644202180378,1.1792540054669243e-05
0.636,-0.03193911050545094,1.1545328756087924e-05
0.637,-0.028745199454905845,1.1300783755551963e-05
0.638,0.0,1.1056487344927125e-05
0.639,0.012775644202180378,1.0808547051990186e-05
0.64,0.0,1.0562496079906706e-05
0.641,0.006387822101090189,1.0315033328126739e-05
0.642,0.009581733151635281,1.0072157441061056e-05
0.643,0.009581733151635281,9.851831054388712e-06
0.644,0.0031939110505450944,9.64251879280502e-06
0.645,-0.009581733151635281,9.438829240475438e-06
0.646,-0.006387822101090189,9.240588495695488e-06
0.647,-0.01596955525272547,9.0419358087622e-06
0.648,-0.028745199454905845,8.84535503487527e-06
0.649,-0.028745199454905845,8.652675209398577e-06
0.65,-0.028745199454905845,8.462433198161216e-06
0.651,-0.035133021555996034,8.273558154271205e-06
0.652,-0.028745199454905845,8.08649135730323e-06
0.653,-0.006387822101090189,7.89944621614562e-06
0.654,0.0,7.713611887286382e-06
0.655,0.0031939110505450944,7.532459613693783e-06
0.656,0.025551288404360755,7.352340847806364e-06
0.657,0.02235737735381566,7.1745097373445e-06
0.658,0.006387822101090189,6.996006582172359e-06
0.659,0.006387822101090189,6.807514419810312e-06
0.66,-0.0031939110505450944,6.615023517816516e-06
0.661,0.0,6.421160003951088e-06
0.662,-0.0031939110505450944,6.226131053329818e-06
0.663,-0.0031939110505450944,6.033320368169423e-06
0.664,-0.0031939110505450944,5.841126525111474e-06
0.665,-0.01596955525272547,5.648571923800033e-06
0.666,-0.019163466303270562,5.456305031621596e-06
0.667,-0.02235737735381566,5.264262052236125e-06
0.668,-0.019163466303270562,5.0725095424182355e-06
0.669,-0.012775644202180378,4.882762183589013e-06
0.67,-0.012775644202180378,4.693894501722897e-06
0.671,-0.006387822101090189,4.5029609948975895e-06
0.672,-0.012775644202180378,4.3129349516387205e-06
0.673,-0.01596955525272547,4.122921144223072e-06
0.674,-0.028745199454905845,3.935107535827704e-06
0.675,0.01596955525272547,3.757052657886888e-06
0.676,0.03193911050545094,3.5840337630562664e-06
0.677,0.01596955525272547,3.4124358821721506e-06
0.678,-0.006387822101090189,3.2432422611205383e-06
0.679,-0.006387822101090189,3.076721512276485e-06
0.68,-0.019163466303270562,2.911408898986252e-06
0.681,-0.038326932606541124,2.748703340581959e-06
0.682,-0.04471475470763132,2.586397920355663e-06
0.683,-0.060684309960356786,2.4178956822171136e-06
0.684,-0.03193911050545094,2.2471985619661775e-06
0.685,-0.01596955525272547,2.077496989705324e-06
0.686,-0.01596955525272547,1.9077206745428145e-06
0.687,-0.028745199454905845,1.7374737413624736e-06
0.688,-0.038326932606541124,1.568167797011388e-06
0.689,-0.025551288404360755,1.397572983968142e-06
0.69,-0.019163466303270562,1.2284739548556265e-06
0.691,-0.009581733151635281,1.0682854486688949e-06
0.692,-0.009581733151635281,9.116645150056132e-07
0.693,-0.012775644202180378,7.582102054356664e-07
0.694,-0.019163466303270562,6.059671399557233e-07
0.695,-0.019163466303270562,4.478675648614292e-07
0.696,-0.006387822101090189,2.887023528630615e-07
0.697,-0.006387822101090189,1.2822508147175863e-07
0.698,-0.02235737735381566,-3.2079497273573816e-08
0.699,-0.035133021555996034,-1.8346780267752928e-07
0.7,-0.035133021555996034,-3.316778289913841e-07
0.701,-0.04152084365708622,-4.845217204322163e-07
0.702,-0.04152084365708622,-6.386391926609607e-07
0.703,-0.028745199454905845,-7.880793327272001e-07
0.704,-0.025551288404360755,-9.406822584935471e-07
0.705,-0.009581733151635281,-1.0919818515023628e-06
0.706,0.009581733151635281,-1.2501453843988924e-06
0.707,0.02235737735381566,-1.4398622851203103e-06
0.708,0.019163466303270562,-1.6451450067957063e-06
0.709,0.019163466303270562,-1.8587220329484291e-06
0.71,0.0031939110505450944,-2.0801097150332833e-06
0.711,-0.006387822101090189,-2.3007016749405282e-06
0.712,-0.012775644202180378,-2.5242762905436748e-06
0.713,-0.025551288404360755,-2.7531934105118148e-06
0.714,-0.025551288404360755,-2.9856262508502923e-06
0.715,-0.038326932606541124,-3.22104889822222e-06
0.716,-0.03193911050545094,-3.4593803911309835e-06
0.717,-0.028745199454905845,-3.697391422717769e-06
0.718,-0.025551288404360755,-3.936954818972609e-06
0.719,-0.012775644202180378,-4.183208091642492e-06
0.72,-0.006387822101090189,-4.430473875608589e-06
0.721,-0.012775644202180378,-4.680865637461877e-06
0.722,0.0,-4.929539750311414e-06
0.723,0.02235737735381566,-5.161522401906811e-06
0.724,0.019163466303270562,-5.386401738456787e-06
0.725,0.0031939110505450944,-5.60822797701643e-06
0.726,-0.006387822101090189,-5.8274013195630115e-06
0.727,-0.012775644202180378,-6.04958932984713e-06
0.728,-0.019163466303270562,-6.271948132257619e-06
0.729,-0.0031939110505450944,-6.492895154130558e-06
0.73,-0.01596955525272547,-6.713323948162199e-06
0.731,-0.03193911050545094,-6.9325651458188585e-06
0.732,-0.04471475470763132,-7.1509913499607705e-06
0.733,-0.035133021555996034,-7.371839716980463e-06
0.734,-0.038326932606541124,-7.592985056079335e-06
0.735,-0.035133021555996034,-7.809092048288087e-06
0.736,-0.02235737735381566,-8.02550153602206e-06
0.737,-0.0031939110505450944,-8.240521542551392e-06
0.738,-0.006387822101090189,-8.458093062677731e-06
0.739,0.0,-8.691995776384498e-06
0.74,0.009581733151635281,-8.93357678639507e-06
0.741,0.0031939110505450944,-9.175957595947549e-06
0.742,0.0031939110505450944,-9.4210736928533e-06
0.743,0.0031939110505450944,-9.669845883663732e-06
0.744,-0.009581733151635281,-9.919128329562996e-06
0.745,-0.019163466303270562,-1.0171518254644042e-05
0.746,-0.02235737735381566,-1.0422694003042381e-05
0.747,-0.02235737735381566,-1.065954514059157e-05
0.748,-0.035133021555996034,-1.0889952913911277e-05
0.749,-0.028745199454905845,-1.112046596812141e-05
0.75,-0.028745199454905845,-1.1348735333658192e-05
0.751,-0.028745199454905845,-1.1573433051866846e-05
0.752,-0.009581733151635281,-1.1797798699673159e-05
0.753,-0.009581733151635281,-1.2017272236255173e-05
0.754,-0.01596955525272547,-1.2237635823071653e-05
0.755,-0.019163466303270562,-1.247470113374022e-05
0.756,0.0,-1.2717144242405167e-05
0.757,0.0031939110505450944,-1.2963375286689868e-05
0.758,0.0,-1.320980132022426e-05
0.759,0.012775644202180378,-1.3442830923299916e-05
0.76,0.0,-1.3671313842821323e-05
0.761,-0.0031939110505450944,-1.3895108678300624e-05
0.762,-0.02235737735381566,-1.4116476355760904e-05
0.763,-0.02235737735381566,-1.4350657120612832e-05
0.764,-0.03193911050545094,-1.4587561121503636e-05
0.765,-0.047908665758176414,-1.4812542833433883e-05
0.766,-0.047908665758176414,-1.5032043005292904e-05
0.767,-0.047908665758176414,-1.5258124667829944e-05
0.768,-0.04152084365708622,-1.5475366038463916e-05
0.769,-0.025551288404360755,-1.569174777377517e-05
0.77,-0.035133021555996034,-1.589197606406399e-05
0.771,-0.04471475470763132,-1.6029003249873815e-05
0.772,-0.028745199454905845,-1.6132914504721123e-05
0.773,-0.006387822101090189,-1.6219263846545335e-05
0.774,0.012775644202180378,-1.6287397687389078e-05
0.775,0.019163466303270562,-1.634977440675969e-05
0.776,-0.006387822101090189,-1.6402550941387665e-05
0.777,-0.028745199454905845,-1.6440314097479287e-05
0.778,-0.012775644202180378,-1.646855375756848e-05
0.779,-0.012775644202180378,-1.6496535397598817e-05
0.78,-0.025551288404360755,-1.6519132227307448e-05
0.781,-0.04471475470763132,-1.6536742176135035e-05
0.782,-0.035133021555996034,-1.6548035115895887e-05
0.783,-0.03193911050545094,-1.6546229699745817e-05
0.784,-0.04152084365708622,-1.6537500182880375e-05
0.785,-0.035133021555996034,-1.652145003811159e-05
0.786,-0.012775644202180378,-1.6501511461751715e-05
0.787,-0.006387822101090189,-1.6489597849760577e-05
0.788,-0.01596955525272547,-1.6478588986034326e-05
0.789,-0.006387822101090189,-1.6463974869755883e-05
0.79,0.0,-1.6446873321002874e-05
0.791,-0.012775644202180378,-1.6426294193186452e-05
0.792,0.0031939110505450944,-1.640175230121746e-05
0.793,0.0031939110505450944,-1.6375199518781042e-05
0.794,0.006387822101090189,-1.6344511489895443e-05
0.795,-0.0031939110505450944,-1.6303596345747414e-05
0.796,-0.006387822101090189,-1.6256436433971128e-05
0.797,-0.012775644202180378,-1.6206027227194952e-05
0.798,-0.006387822101090189,-1.6151698421715056e-05
0.799,-0.012775644202180378,-1.6093563388067508e-05
0.8,-0.012775644202180378,-1.6032775595551618e-05
0.801,-0.025551288404360755,-1.596789074950158e-05
0.802,-0.025551288404360755,-1.5901120339669462e-05
0.803,-0.035133021555996034,-1.5838220381281112e-05
0.804,-0.038326932606541124,-1.577551501097004e-05
0.805,-0.01596955525272547,-1.5712072461964947e-05
0.806,0.006387822101090189,-1.5647325119104982e-05
0.807,0.019163466303270562,-1.5577998485108024e-05
0.808,0.019163466303270562,-1.550628555510437e-05
0.809,0.0031939110505450944,-1.5432483634604462e-05
0.81,-0.019163466303270562,-1.535703960266069e-05
0.811,-0.012775644202180378,-1.5282973670841365e-05
0.812,-0.009581733151635281,-1.5208429297447418e-05
0.813,0.0,-1.5130776920085929e-05
0.814,-0.012775644202180378,-1.5051292636150603e-05
0.815,-0.025551288404360755,-1.4972128280745494e-05
0.816,-0.012775644202180378,-1.489059993642349e-05
0.817,-0.01596955525272547,-1.4808643839602164e-05
0.818,-0.01596955525272547,-1.4723210384180991e-05
0.819,-0.0031939110505450944,-1.4625309707190708e-05
0.82,-0.0031939110505450944,-1.4521123195961765e-05
0.821,0.0,-1.4412341907947855e-05
0.822,0.006387822101090189,-1.4300189991585419e-05
0.823,0.01596955525272547,-1.419037236234448e-05
0.824,0.02235737735381566,-1.4079488053934159e-05
0.825,0.006387822101090189,-1.3967197900945125e-05
0.826,0.02235737735381566,-1.3853103515517489e-05
0.827,0.0031939110505450944,-1.3732496351674714e-05
0.828,-0.009581733151635281,-1.3608571468003535e-05
0.829,-0.006387822101090189,-1.3486530889936766e-05
0.83,-0.012775644202180378,-1.3364007803948383e-05
0.831,-0.03193911050545094,-1.3236257642133754e-05
0.832,-0.03193911050545094,-1.3109173244781811e-05
0.833,-0.025551288404360755,-1.2979909834644952e-05
0.834,-0.028745199454905845,-1.2854118860390359e-05
0.835,-0.035133021555996034,-1.27492745768833e-05
0.836,-0.02235737735381566,-1.2654242381142061e-05
0.837,-0.02235737735381566,-1.2563214548382685e-05
0.838,-0.019163466303270562,-1.2476499825293027e-05
0.839,-0.006387822101090189,-1.2389615301430357e-05
0.84,-0.009581733151635281,-1.2303898835485092e-05
0.841,-0.012775644202180378,-1.2221406201988228e-05
0.842,-0.006387822101090189,-1.2140052862058263e-05
0.843,-0.0031939110505450944,-1.2056156874874313e-05
0.844,-0.012775644202180378,-1.1971805343821039e-05
0.845,-0.019163466303270562,-1.1887042376126825e-05
0.846,-0.009581733151635281,-1.1802313461296824e-05
0.847,-0.02235737735381566,-1.1720072619346932e-05
0.848,-0.028745199454905845,-1.1638179018766182e-05
0.849,-0.025551288404360755,-1.155668145730123e-05
0.85,-0.02235737735381566,-1.1474501858082373e-05
0.851,-0.025551288404360755,-1.1387734246895389e-05
0.852,-0.02235737735381566,-1.1298699364906181e-05
0.853,0.009581733151635281,-1.1209021100758236e-05
0.854,0.0031939110505450944,-1.1118220294345761e-05
0.855,0.01596955525272547,-1.1026324897980375e-05
0.856,0.009581733151635281,-1.0933764892418746e-05
0.857,0.019163466303270562,-1.0839846686170482e-05
0.858,0.02235737735381566,-1.074542609655207e-05
0.859,0.009581733151635281,-1.0653143984958547e-05
0.86,-0.012775644202180378,-1.0561306581408883e-05
0.861,-0.009581733151635281,-1.0468464123679344e-05
0.862,-0.006387822101090189,-1.0375048916557079e-05
0.863,-0.012775644202180378,-1.028135027402662e-05
0.864,0.0031939110505450944,-1.0186572305052819e-05
0.865,-0.012775644202180378,-1.0091472476255174e-05
0.866,-0.028745199454905845,-9.9948687246073e-06
0.867,-0.05429648785926659,-9.893466443255184e-06
0.868,-0.05429648785926659,-9.789408277013952e-06
0.869,-0.035133021555996034,-9.683447360956622e-06
0.87,-0.009581733151635281,-9.57580472399982e-06
0.871,-0.01596955525272547,-9.468044026869207e-06
0.872,-0.009581733151635281,-9.359266542611116e-06
0.873,-0.006387822101090189,-9.249244555952438e-06
0.874,0.009581733151635281,-9.137971874025905e-06
0.875,-0.012775644202180378,-9.024565510698503e-06
0.876,-0.02235737735381566,-8.909613734218774e-06
0.877,-0.006387822101090189,-8.794163436458017e-06
0.878,0.0031939110505450944,-8.677702254045327e-06
0.879,-0.0031939110505450944,-8.559213777537694e-06
0.88,-0.006387822101090189,-8.439933980136022e-06
0.881,-0.03193911050545094,-8.319151601049047e-06
0.882,-0.04471475470763132,-8.198136071031884e-06
0.883,-0.03193911050545094,-8.080686463821688e-06
0.884,-0.038326932606541124,-7.964274160641828e-06
0.885,-0.028745199454905845,-7.848034053290935e-06
0.886,-0.009581733151635281,-7.731646366803428e-06
0.887,-0.009581733151635281,-7.613159273661298e-06
0.888,-0.01596955525272547,-7.493668850869072e-06
0.889,-0.0031939110505450944,-7.3734538356465065e-06
0.89,0.006387822101090189,-7.2524813655212205e-06
0.891,0.009581733151635281,-7.131855854924568e-06
0.892,0.02235737735381566,-7.010845583546368e-06
0.893,0.025551288404360755,-6.887863928124995e-06
0.894,-0.012775644202180378,-6.763732748358927e-06
0.895,-0.025551288404360755,-6.640269409960658e-06
0.896,-0.028745199454905845,-6.5154243305268065e-06
0.897,-0.04471475470763132,-6.390017922303615e-06
0.898,-0.060684309960356786,-6.262298569950482e-06
0.899,-0.04152084365708622,-6.1265479283777825e-06
0.9,-0.047908665758176414,-5.986364451180198e-06
0.901,-0.038326932606541124,-5.844142196387124e-06
0.902,-0.025551288404360755,-5.69939689064304e-06
0.903,-0.028745199454905845,-5.5525968128840964e-06
0.904,-0.028745199454905845,-5.4042222561663235e-06
0.905,-0.02235737735381566,-5.253385707323932e-06
0.906,-0.0031939110505450944,-5.101340009872636e-06
0.907,-0.0031939110505450944,-4.951517581576218e-06
0.908,-0.006387822101090189,-4.801865761578108e-06
0.909,0.0031939110505450944,-4.65089042874827e-06
0.91,-0.006387822101090189,-4.499062713044218e-06
0.911,-0.02235737735381566,-4.346381566873595e-06
0.912,-0.025551288404360755,-4.1923757039856545e-06
0.913,-0.03193911050545094,-4.038024494674254e-06
0.914,-0.03193911050545094,-3.882188635078246e-06
0.915,-0.025551288404360755,-3.7218284305534857e-06
0.916,-0.012775644202180378,-3.5591443831507516e-06
0.917,-0.01596955525272547,-3.3944337897716183e-06
0.918,-0.038326932606541124,-3.2284176783867936e-06
0.919,-0.025551288404360755,-3.063784753681934e-06
0.92,-0.02235737735381566,-2.8987964359352933e-06
0.921,-0.012775644202180378,-2.73346207735664e-06
0.922,0.0,-2.567367505331193e-06
0.923,0.009581733151635281,-2.39753613789024e-06
0.924,0.012775644202180378,-2.2259248704516498e-06
0.925,0.01596955525272547,-2.055565984384166e-06
0.926,0.019163466303270562,-1.8850758831270181e-06
0.927,0.012775644202180378,-1.7117365964089685e-06
0.928,0.0,-1.5388819629512034e-06
0.929,0.0,-1.364977183409726e-06
0.93,-0.028745199454905845,-1.1931220841359299e-06
0.931,-0.038326932606541124,-1.0331481952395313e-06
0.932,-0.019163466303270562,-8.788645752573257e-07
0.933,-0.028745199454905845,-7.264184821557358e-07
0.934,-0.035133021555996034,-5.764623061817848e-07
0.935,-0.038326932606541124,-4.2769848609254657e-07
0.936,-0.02235737735381566,-2.79774408750464e-07
0.937,-0.019163466303270562,-1.341414071493631e-07
0.938,-0.006387822101090189,1.1075399234525976e-08
0.939,0.019163466303270562,1.6067412633103546e-07
0.94,0.0,3.117666185406182e-07
0.941,0.012775644202180378,4.6259043802979027e-07
0.942,0.019163466303270562,6.135612621931217e-07
0.943,0.009581733151635281,7.640507489079451e-07
0.944,0.0,9.139953318474143e-07
0.945,-0.012775644202180378,1.0645890296935193e-06
0.946,-0.019163466303270562,1.21465103143793e-06
0.947,-0.01596955525272547,1.361429635157454e-06
0.948,-0.025551288404360755,1.5070562623190397e-06
0.949,-0.04152084365708622,1.651133432699187e-06
0.95,-0.038326932606541124,1.7949226909387375e-06
0.951,-0.04471475470763132,1.9423777965246994e-06
0.952,-0.03193911050545094,2.090616655676074e-06
0.953,-0.019163466303270562,2.2400289296992985e-06
0.954,-0.03193911050545094,2.3894271301764318e-06
0.955,-0.006387822101090189,2.5328600124811517e-06
0.956,0.006387822101090189,2.674194845866775e-06
0.957,0.019163466303270562,2.818315280740187e-06
0.958,0.019163466303270562,2.9631861122457995e-06
0.959,0.0,3.1054432686931578e-06
0.96,-0.009581733151635281,3.249688643000486e-06
0.961,-0.012775644202180378,3.393088637873699e-06
0.962,-0.03193911050545094,3.5406469467030232e-06
0.963,-0.02235737735381566,3.707315748756057e-06
0.964,-0.01596955525272547,3.883346707714908e-06
0.965,-0.025551288404360755,4.064610046637643e-06
0.966,-0.04152084365708622,4.2505532461273205e-06
0.967,-0.035133021555996034,4.4353175178365065e-06
0.968,-0.019163466303270562,4.6217369613909056e-06
0.969,-0.019163466303270562,4.811088824057327e-06
0.97,-0.028745199454905845,5.00259216752759e-06
0.971,-0.01596955525272547,5.197274969958688e-06
0.972,-0.0031939110505450944,5.394223528259137e-06
0.973,0.012775644202180378,5.59054026884832e-06
0.974,0.006387822101090189,5.787722165216657e-06
0.975,0.006387822101090189,5.9893685589572636e-06
0.976,0.0,6.191280986466833e-06
0.977,-0.006387822101090189,6.395329928988147e-06
0.978,0.012775644202180378,6.597632975207329e-06
0.979,-0.0031939110505450944,6.786406683188107e-06
0.98,-0.009581733151635281,6.969275539357813e-06
0.981,-0.025551288404360755,7.149211415255279e-06
0.982,-0.03193911050545094,7.326762915917242e-06
0.983,-0.03193911050545094,7.506965486906871e-06
0.984,-0.038326932606541124,7.68712668474222e-06
0.985,-0.02235737735381566,7.866113317621309e-06
0.986,-0.02235737735381566,8.04439250690912e-06
0.987,-0.03193911050545094,8.220343694656446e-06
0.988,-0.006387822101090189,8.394962595387429e-06
0.989,0.03193911050545094,8.571708579996329e-06
0.99,-0.006387822101090189,8.748520071221875e-06
0.991,-0.012775644202180378,8.92052196276938e-06
0.992,-0.0031939110505450944,9.092798620670483e-06
0.993,0.0031939110505450944,9.263556274946143e-06
0.994,-0.012775644202180378,9.436772012930177e-06
0.995,-0.009581733151635281,9.626028715934426e-06
0.996,-0.006387822101090189,9.822781422019051e-06
0.997,-0.009581733151635281,1.0020573414433055e-05
0.998,-0.05110257680872151,1.0221077038164357e-05
0.999,-0.04152084365708622,1.0424577925447946e-05
1.0,-0.04152084365708622,1.0628564404492361e-05
1.001,-0.04471475470763132,1.0835461303867721e-05
1.002,-0.04152084365708622,1.1041384896787588e-05
1.003,-0.019163466303270562,1.123484211074599e-05
1.004,-0.019163466303270562,1.142273026619438e-05
1.005,-0.012775644202180378,1.1610593661955274e-05
1.006,-0.0031939110505450944,1.1796496561074989e-05
1.007,0.019163466303270562,1.197958908487899e-05
1.008,0.019163466303270562,1.2162375345626162e-05
1.009,0.019163466303270562,1.2341005298940727e-05
1.01,0.009581733151635281,1.2520251409134661e-05
1.011,0.006387822101090189,1.271305509002886e-05
1.012,0.0,1.2910097346063397e-05
1.013,0.0,1.311021676107481e-05
1.014,-0.006387822101090189,1.3310321291801952e-05
1.015,-0.03193911050545094,1.3498916456316731e-05
1.016,-0.03193911050545094,1.3683539598961033e-05
1.017,-0.03193911050545094,1.386399440062821e-05
1.018,-0.04152084365708622,1.4042291814307688e-05
1.019,-0.028745199454905845,1.4231624647870026e-05
1.02,0.012775644202180378,1.4423266986428961e-05
1.021,0.012775644202180378,1.4604668310860548e-05
1.022,-0.006387822101090189,1.4781326444929595e-05
1.023,-0.006387822101090189,1.496347693196882e-05
1.024,0.006387822101090189,1.5137987944302126e-05
1.025,0.012775644202180378,1.5311698747026294e-05
1.026,0.009581733151635281,1.5471539595634645e-05
1.027,-0.006387822101090189,1.557734389724997e-05
1.028,0.006387822101090189,1.565480440488518e-05
1.029,0.012775644202180378,1.5717156377492355e-05
1.03,-0.006387822101090189,1.5763880164864055e-05
1.031,-0.025551288404360755,1.580570918146879e-05
1.032,-0.009581733151635281,1.5839277529608116e-05
1.033,-0.01596955525272547,1.5859985927713418e-05
1.034,-0.025551288404360755,1.5872469699671535e-05
1.035,-0.028745199454905845,1.5884430980372442e-05
1.036,-0.006387822101090189,1.5891624274167605e-05
1.037,0.009581733151635281,1.5894531436119077e-05
1.038,0.0031939110505450944,1.5891960571999615e-05
1.039,0.012775644202180378,1.587804808656349e-05
1.04,0.009581733151635281,1.5858178472952647e-05
1.041,0.0031939110505450944,1.5831921137220416e-05
1.042,0.012775644202180378,1.5802349726750803e-05
1.043,0.006387822101090189,1.5780046379394457e-05
1.044,0.0,1.5758654029066003e-05
1.045,-0.012775644202180378,1.5734245791183378e-05
1.046,-0.012775644202180378,1.570772480113937e-05
1.047,-0.02235737735381566,1.567799260360671e-05
1.048,-0.04152084365708622,1.5644788209036466e-05
1.049,-0.05110257680872151,1.5609800822217353e-05
1.05,-0.06387822101090188,1.557123147762814e-05
1.051,-0.060684309960356786,1.5524080890500528e-05
1.052,-0.04471475470763132,1.547161861784619e-05
1.053,-0.028745199454905845,1.5416162333032273e-05
1.054,-0.025551288404360755,1.5357259357550307e-05
1.055,-0.01596955525272547,1.52952567811309e-05
1.056,0.009581733151635281,1.523085080191836e-05
1.057,0.019163466303270562,1.516293213084714e-05
1.058,0.02235737735381566,1.5093134412200912e-05
1.059,0.012775644202180378,1.5025546174224223e-05
1.06,0.0,1.4957550407425557e-05
1.061,-0.009581733151635281,1.4888694901835371e-05
1.062,0.006387822101090189,1.4818428535181137e-05
1.063,0.0031939110505450944,1.4744031871748511e-05
1.064,-0.012775644202180378,1.466744070176846e-05
1.065,-0.035133021555996034,1.4588780708205122e-05
1.066,-0.028745199454905845,1.4508613176817942e-05
1.067,-0.035133021555996034,1.4430000395631027e-05
1.068,-0.02235737735381566,1.4351067763626882e-05
1.069,-0.02235737735381566,1.4269372941991288e-05
1.07,-0.02235737735381566,1.4186062849605114e-05
1.071,-0.03193911050545094,1.4102948990921925e-05
1.072,-0.02235737735381566,1.4017697505813778e-05
1.073,0.0,1.3932098764473887e-05
1.074,0.019163466303270562,1.3843399930283619e-05
1.075,0.009581733151635281,1.3743549063716843e-05
1.076,0.006387822101090189,1.363810625562618e-05
1.077,-0.006387822101090189,1.3528506791463064e-05
1.078,-0.01596955525272547,1.3415927237269573e-05
1.079,-0.019163466303270562,1.3305675268805872e-05
1.08,-0.028745199454905845,1.3194542561177661e-05
1.081,-0.04152084365708622,1.3082269820285936e-05
1.082,-0.04152084365708622,1.2968407748213467e-05
1.083,-0.05429648785926659,1.2848341094472907e-05
1.084,-0.04152084365708622,1.2725188435374024e-05
1.085,-0.028745199454905845,1.2603904689418124e-05
1.086,-0.012775644202180378,1.2482253088943208e-05
1.087,-0.012775644202180378,1.2355810000659071e-05
1.088,-0.02235737735381566,1.2230107972342404e-05
1.089,0.0031939110505450944,1.2102426732818234e-05
1.09,0.0031939110505450944,1.197812139134044e-05
1.091,0.0031939110505450944,1.1873705885862206e-05
1.092,0.0031939110505450944,1.1778641551068058e-05
1.093,0.0,1.1687506529509532e-05
1.094,-0.0031939110505450944,1.1600529528181771e-05
1.095,-0.006387822101090189,1.1513316804239488e-05
1.096,-0.01596955525272547,1.142726550027728e-05
1.097,-0.02235737735381566,1.1344281579901563e-05
1.098,-0.025551288404360755,1.126247421221207e-05
1.099,-0.028745199454905845,1.1178691250069788e-05
1.1,-0.025551288404360755,1.1094694961064498e-05
1.101,-0.03193911050545094,1.1010297872635133e-05
1.102,-0.05429648785926659,1.0926009437476271e-05
1.103,-0.006387822101090189,1.0844268025563012e-05
1.104,0.012775644202180378,1.0762865272204985e-05
1.105,-0.01596955525272547,1.0681990916159485e-05
1.106,0.0031939110505450944,1.0600395304283295e-05
1.107,0.02235737735381566,1.0513726191349081e-05
1.108,0.02235737735381566,1.0424619244751095e-05
1.109,0.02235737735381566,1.0334736474830488e-05
1.11,0.009581733151635281,1.0243698870833358e-05
1.111,0.009581733151635281,1.0151921179221575e-05
1.112,0.0031939110505450944,1.0059575433481106e-05
1.113,-0.019163466303270562,9.965963095940616e-06
1.114,-0.038326932606541124,9.871876213643089e-06
1.115,-0.05749039890981169,9.77951932753743e-06
1.116,-0.04152084365708622,9.687476320005969e-06
1.117,-0.04152084365708622,9.59473948775605e-06
1.118,-0.04152084365708622,9.501529691926911e-06
1.119,-0.019163466303270562,9.407720611894939e-06
1.12,-0.025551288404360755,9.31300905941277e-06
1.121,-0.025551288404360755,9.217925783249862e-06
1.122,-0.0031939110505450944,9.121738124261346e-06
1.123,0.0,9.0226007728143e-06
1.124,0.01596955525272547,8.921739228520661e-06
1.125,0.006387822101090189,8.819306582924873e-06
1.126,0.01596955525272547,8.7156363491235e-06
1.127,0.0,8.612149291694578e-06
1.128,-0.006387822101090189,8.507841547507046e-06
1.129,-0.01596955525272547,8.402706114964092e-06
1.13,-0.038326932606541124,8.296425967947028e-06
1.131,-0.04471475470763132,8.18728762244466e-06
1.132,-0.04152084365708622,8.076373148953358e-06
1.133,-0.04471475470763132,7.965067449193585e-06
1.134,-0.04471475470763132,7.852756576083701e-06
1.135,-0.038326932606541124,7.738461016253719e-06
1.136,-0.02235737735381566,7.623491409026463e-06
1.137,-0.01596955525272547,7.50690385344812e-06
1.138,-0.01596955525272547,7.390218996261722e-06
1.139,0.0,7.277881266009557e-06
1.14,0.0,7.166878999867493e-06
1.141,0.0,7.0563368836965946e-06
1.142,0.0,6.9457281174303026e-06
1.143,0.012775644202180378,6.832399056865834e-06
1.144,-0.0031939110505450944,6.717922886248821e-06
1.145,-0.009581733151635281,6.60253992647422e-06
1.146,-0.038326932606541124,6.48637282244436e-06
1.147,-0.04152084365708622,6.371432408198719e-06
1.148,-0.028745199454905845,6.256389133749001e-06
1.149,-0.025551288404360755,6.138836131745085e-06
1.15,-0.07026604311199207,6.019946187722528e-06
1.151,-0.06707213206144698,5.9021690189491665e-06
1.152,-0.04152084365708622,5.782625769731902e-06
1.153,-0.03193911050545094,5.6625840111449505e-06
1.154,-0.025551288404360755,5.5394494267810815e-06
1.155,-0.025551288404360755,5.404930538517761e-06
1.156,0.0,5.264274159140898e-06
1.157,0.006387822101090189,5.120701826712245e-06
1.158,-0.009581733151635281,4.973712461893096e-06
1.159,0.0,4.824504511968403e-06
1.16,-0.006387822101090189,4.673304202440704e-06
1.161,-0.019163466303270562,4.518938625470388e-06
1.162,-0.01596955525272547,4.362933947955566e-06
1.163,-0.038326932606541124,4.209122542300492e-06
1.164,-0.019163466303270562,4.055237681089715e-06
1.165,-0.028745199454905845,3.899879205699786e-06
1.166,-0.025551288404360755,3.7434158451726336e-06
1.167,-0.025551288404360755,3.5854363873793335e-06
1.168,-0.019163466303270562,3.425865070847229e-06
1.169,-0.012775644202180378,3.2656121081278355e-06
1.17,-0.02235737735381566,3.1037985820171587e-06
1.171,-0.009581733151635281,2.938246738663506e-06
1.172,0.009581733151635281,2.7706245256381797e-06
1.173,0.012775644202180378,2.6009408117904743e-06
1.174,0.01596955525272547,2.429952453465053e-06
1.175,0.012775644202180378,2.260167461641599e-06
1.176,0.009581733151635281,2.0898951529460908e-06
1.177,0.0,1.9192638700495514e-06
1.178,-0.0031939110505450944,1.7477477398926496e-06
1.179,-0.006387822101090189,1.5721307320835567e-06
1.18,-0.02235737735381566,1.3945259291210297e-06
1.181,-0.047908665758176414,1.2180109244523586e-06
1.182,-0.04471475470763132,1.0412246202219023e-06
1.183,-0.035133021555996034,8.615822933528956e-07
1.184,-0.04471475470763132,6.823349892760564e-07
1.185,-0.04471475470763132,5.019276715002689e-07
1.186,-0.038326932606541124,3.234554796066869e-07
1.187,-0.006387822101090189,1.566541291897089e-07
1.188,0.0,-4.611498473982876e-09
1.189,-0.02235737735381566,-1.640674880732506e-07
1.19,-0.025551288404360755,-3.211329057932324e-07
1.191,0.019163466303270562,-4.772644281858438e-07
1.192,0.019163466303270562,-6.326487672060764e-07
1.193,0.0031939110505450944,-7.85886237200684e-07
1.194,-0.0031939110505450944,-9.387297221078844e-07
1.195,-0.012775644202180378,-1.0955360479383022e-06
1.196,-0.01596955525272547,-1.2536858386100613e-06
1.197,-0.012775644202180378,-1.4116850488737026e-06
1.198,-0.025551288404360755,-1.5698408686577008e-06
1.199,-0.03193911050545094,-1.7274051112303648e-06
1.2,-0.047908665758176414,-1.8845046398935854e-06
1.201,-0.047908665758176414,-2.042143966222738e-06
1.202,-0.038326932606541124,-2.199409603846796e-06
1.203,-0.028745199454905845,-2.3543055488389254e-06
1.204,-0.02235737735381566,-2.50843442736313e-06
1.205,-0.01596955525272547,-2.6612921557182757e-06
1.206,0.006387822101090189,-2.8140031618661983e-06
1.207,0.012775644202180378,-2.9699558019244204e-06
1.208,0.0,-3.1266253606928458e-06
1.209,0.006387822101090189,-3.2844127550755588e-06
1.21,-0.012775644202180378,-3.442203750008371e-06
1.211,-0.0031939110505450944,-3.5946153963079535e-06
1.212,-0.009581733151635281,-3.7451373843118708e-06
1.213,-0.035133021555996034,-3.898082832167826e-06
1.214,-0.04471475470763132,-4.051672033939459e-06
1.215,-0.038326932606541124,-4.20303050824861e-06
1.216,-0.028745199454905845,-4.356143159529466e-06
1.217,-0.035133021555996034,-4.508489947266721e-06
1.218,-0.038326932606541124,-4.664469575110771e-06
1.219,-0.025551288404360755,-4.8371684979828305e-06
1.22,-0.009581733151635281,-5.018032106358043e-06
1.221,0.0,-5.203547509324799e-06
1.222,0.006387822101090189,-5.3931369494427324e-06
1.223,0.009581733151635281,-5.581437168085093e-06
1.224,0.012775644202180378,-5.7711293835990014e-06
1.225,0.009581733151635281,-5.963276101089018e-06
1.226,0.02235737735381566,-6.157314546762182e-06
1.227,0.019163466303270562,-6.354639423004895e-06
1.228,-0.006387822101090189,-6.554134289256213e-06
1.229,-0.006387822101090189,-6.752920941946349e-06
1.23,-0.006387822101090189,-6.95244155112932e-06
1.231,-0.012775644202180378,-7.1560206478660164e-06
1.232,-0.009581733151635281,-7.359710473738924e-06
1.233,-0.01596955525272547,-7.565365859360753e-06
1.234,-0.028745199454905845,-7.769243250256397e-06
1.235,-0.01596955525272547,-7.96004410619983e-06
1.236,0.0,-8.145104310637199e-06
1.237,0.0031939110505450944,-8.327204069099226e-06
1.238,0.0031939110505450944,-8.506944404017692e-06
1.239,0.02235737735381566,-8.689337549415109e-06
1.24,0.012775644202180378,-8.871655908523267e-06
1.241,0.025551288404360755,-9.052851409499317e-06
1.242,0.009581733151635281,-9.233293676495965e-06
1.243,-0.0031939110505450944,-9.411074059651824e-06
1.244,0.01596955525272547,-9.58737689667211e-06
1.245,0.0,-9.765803521451747e-06
1.246,-0.025551288404360755,-9.9442602755403e-06
1.247,-0.04152084365708622,-1.0117879264025986e-05
1.248,-0.04152084365708622,-1.0291799321333513e-05
1.249,-0.038326932606541124,-1.0464149446030195e-05
1.25,-0.05110257680872151,-1.063901956702285e-05
1.251,-0.04471475470763132,-1.0830277185572436e-05
1.252,-0.02235737735381566,-1.1029188854967821e-05
1.253,-0.04471475470763132,-1.1229282314131154e-05
1.254,-0.035133021555996034,-1.1432173742356541e-05
1.255,-0.02235737735381566,-1.1637915908343522e-05
1.256,0.01596955525272547,-1.1844165912620331e-05
1.257,0.025551288404360755,-1.2053348586142332e-05
1.258,0.019163466303270562,-1.226163691509759e-05
1.259,0.0,-1.2457833242660074e-05
1.26,-0.006387822101090189,-1.2648651137468488e-05
1.261,-0.025551288404360755,-1.2839396400007135e-05
1.262,-0.03193911050545094,-1.3028241857259842e-05
1.263,-0.03193911050545094,-1.3214513401259467e-05
1.264,-0.035133021555996034,-1.3400486954720937e-05
1.265,-0.03193911050545094,-1.3582471810631967e-05
1.266,-0.028745199454905845,-1.376498285639144e-05
1.267,-0.05429648785926659,-1.3960196148603926e-05
1.268,-0.047908665758176414,-1.4159309442225654e-05
1.269,-0.025551288404360755,-1.436133717425924e-05
1.27,-0.0031939110505450944,-1.4563258796287671e-05
1.271,0.009581733151635281,-1.4753987637908184e-05
1.272,0.01596955525272547,-1.4940836335255745e-05
1.273,0.009581733151635281,-1.512355292775838e-05
1.274,0.006387822101090189,-1.5304159435259545e-05
1.275,0.006387822101090189,-1.5495619434540492e-05
1.276,-0.01596955525272547,-1.5689361422316207e-05
1.277,-0.04152084365708622,-1.5873186844136377e-05
1.278,-0.05110257680872151,-1.605241130890636e-05
1.279,-0.02235737735381566,-1.623685542668661e-05
1.28,-0.028745199454905845,-1.6413851299305948e-05
1.281,-0.05429648785926659,-1.6590073633582093e-05
1.282,-0.05749039890981169,-1.6752830984862662e-05
1.283,-0.04152084365708622,-1.686321783099568e-05
1.284,-0.04152084365708622,-1.6946148164036128e-05
1.285,-0.04471475470763132,-1.7014268564815623e-05
1.286,-0.047908665758176414,-1.70672235957977e-05
1.287,-0.038326932606541124,-1.7115788119626128e-05
1.288,-0.02235737735381566,-1.715636897723879e-05
1.289,0.009581733151635281,-1.7184591018710802e-05
1.29,0.009581733151635281,-1.720474586923177e-05
1.291,0.009581733151635281,-1.7223486933994903e-05
1.292,0.02235737735381566,-1.7237204739610043e-05
1.293,0.01596955525272547,-1.7246936802711993e-05
1.294,-0.009581733151635281,-1.7251290048363594e-05
1.295,-0.0031939110505450944,-1.7244243669239855e-05
1.296,-0.0031939110505450944,-1.7231494161834243e-05
1.297,-0.019163466303270562,-1.7212269000641373e-05
1.298,-0.025551288404360755,-1.7190113035027986e-05
1.299,-0.0031939110505450944,-1.7176954684777483e-05
1.3,-0.012775644202180378,-1.7165512716463313e-05
1.301,-0.028745199454905845,-1.7151568602912376e-05
1.302,-0.025551288404360755,-1.7135871648002465e-05
1.303,-0.009581733151635281,-1.7116535637349728e-05
1.304,0.0,-1.7093740602627802e-05
1.305,0.0031939110505450944,-1.7069276138790208e-05
1.306,0.01596955525272547,-1.7041328589014598e-05
1.307,0.019163466303270562,-1.7005390509275447e-05
1.308,0.012775644202180378,-1.6964410161992494e-05
1.309,0.012775644202180378,-1.6919926962488933e-05
1.31,-0.0031939110505450944,-1.6871903229211515e-05
1.311,-0.01596955525272547,-1.6821650742222925e-05
1.312,0.0031939110505450944,-1.6768818309026988e-05
1.313,0.006387822101090189,-1.6712614517054408e-05
1.314,0.0,-1.6653878379924245e-05
1.315,0.0,-1.6593935056239535e-05
1.316,-0.009581733151635281,-1.653183936059622e-05
1.317,-0.02235737735381566,-1.6468656767132638e-05
1.318,-0.035133021555996034,-1.6403283394955247e-05
1.319,-0.028745199454905845,-1.633241820670003e-05
1.32,-0.03193911050545094,-1.625893058839235e-05
1.321,-0.019163466303270562,-1.6182339312356216e-05
1.322,-0.012775644202180378,-1.610423004041968e-05
1.323,0.009581733151635281,-1.60310354367738e-05
1.324,0.0031939110505450944,-1.5958810910701447e-05
1.325,0.0,-1.588319110489332e-05
1.326,-0.0031939110505450944,-1.5806037550431088e-05
1.327,-0.01596955525272547,-1.5729838878268656e-05
1.328,-0.019163466303270562,-1.5651041261230198e-05
1.329,-0.019163466303270562,-1.5572661778501965e-05
1.33,-0.025551288404360755,-1.549019558376769e-05
1.331,-0.025551288404360755,-1.5390618194363023e-05
1.332,-0.025551288404360755,-1.528290210857953e-05
1.333,-0.028745199454905845,-1.5169406945488168e-05
1.334,-0.04152084365708622,-1.5051981455324652e-05
1.335,-0.03193911050545094,-1.4939109721289192e-05
1.336,-0.009581733151635281,-1.482568524262591e-05
1.337,-0.012775644202180378,-1.4711177218244523e-05
1.338,-0.009581733151635281,-1.4594977570821446e-05
1.339,0.006387822101090189,-1.446994605362483e-05
1.34,0.012775644202180378,-1.434084614655527e-05
1.341,0.01596955525272547,-1.4215780375616385e-05
1.342,0.019163466303270562,-1.409093527474616e-05
1.343,0.0031939110505450944,-1.395849989724498e-05
1.344,-0.012775644202180378,-1.3827872310624126e-05
1.345,-0.02235737735381566,-1.3694821573245943e-05
1.346,0.0,-1.3567979526134727e-05
1.347,0.0,-1.3474680533115188e-05
1.348,-0.012775644202180378,-1.3397652195117657e-05
1.349,-0.019163466303270562,-1.3326553667407409e-05
1.35,-0.03193911050545094,-1.3262908660099445e-05
1.351,-0.025551288404360755,-1.3202207802053256e-05
1.352,-0.0031939110505450944,-1.3144202800291092e-05
1.353,0.0031939110505450944,-1.3093230759293032e-05
1.354,-0.0031939110505450944,-1.3044086933574377e-05
1.355,-0.009581733151635281,-1.2984538094845303e-05
1.356,0.0,-1.292230090741157e-05
1.357,0.009581733151635281,-1.2859564541071397e-05
1.358,0.025551288404360755,-1.2797159670560453e-05
1.359,0.019163466303270562,-1.2741877672778898e-05
1.36,-0.0031939110505450944,-1.268942551960485e-05
1.361,0.0,-1.2636798436311711e-05
1.362,-0.02235737735381566,-1.258526062061032e-05
1.363,-0.04152084365708622,-1.2532461784544905e-05
1.364,-0.04471475470763132,-1.2477985155031509e-05
1.365,-0.04152084365708622,-1.2433556554383007e-05
1.366,-0.047908665758176414,-1.2389524234432294e-05
1.367,-0.08623559836471753,-1.2322526934775043e-05
1.368,-0.04471475470763132,-1.2253502375619772e-05
1.369,-0.006387822101090189,-1.2175461023771335e-05
1.37,0.0031939110505450944,-1.210260878651292e-05
1.371,-0.03193911050545094,-1.208889487716081e-05
1.372,-0.01596955525272547,-1.209936677603574e-05
1.373,0.028745199454905845,-1.21023763832368e-05
1.374,0.02235737735381566,-1.2108179019743743e-05
1.375,0.0031939110505450944,-1.2124019828145647e-05
1.376,0.009581733151635281,-1.2130661048648926e-05
1.377,-0.0031939110505450944,-1.2152171025324473e-05
1.378,-0.028745199454905845,-1.2154996613824017e-05
1.379,-0.028745199454905845,-1.2053406420514093e-05
1.38,-0.028745199454905845,-1.1908588014571537e-05
1.381,-0.035133021555996034,-1.1714826428621092e-05
1.382,-0.047908665758176414,-1.1501003921190406e-05
1.383,-0.047908665758176414,-1.1366330555547226e-05
1.384,-0.04152084365708622,-1.1237516915621934e-05
1.385,-0.02235737735381566,-1.1120633501208507e-05
1.386,-0.01596955525272547,-1.0986916157212243e-05
1.387,-0.01596955525272547,-1.0692756209899123e-05
1.388,-0.01596955525272547,-1.0329213625185867e-05
1.389,0.0031939110505450944,-1.001329690222012e-05
1.39,-0.006387822101090189,-9.693804975509154e-06
1.391,0.0,-9.286211845887189e-06
1.392,0.012775644202180378,-8.902028994788955e-06
1.393,-0.0031939110505450944,-8.470224134097795e-06
1.394,-0.012775644202180378,-8.112080253729758e-06
1.395,-0.009581733151635281,-8.192420602489752e-06
1.396,-0.0031939110505450944,-8.470512871567249e-06
1.397,-0.03193911050545094,-8.845972680743114e-06
1.398,-0.04471475470763132,-9.302419950517933e-06
1.399,-0.04471475470763132,-9.687518922190788e-06
1.4,-0.04152084365708622,-1.0074101640019176e-05
1.401,-0.05110257680872151,-1.050238149895297e-05
1.402,-0.04471475470763132,-1.0944225579565246e-05
1.403,-0.038326932606541124,-1.14189695804311e-05
1.404,-0.035133021555996034,-1.1914568998590723e-05
1.405,-0.0031939110505450944,-1.2314683793394028e-05
1.406,-0.006387822101090189,-1.2693552263938917e-05
1.407,-0.009581733151635281,-1.3247333029181538e-05
1.408,-0.009581733151635281,-1.3781550858760024e-05
1.409,-0.009581733151635281,-1.433440892840344e-05
1.41,-0.02235737735381566,-1.4782154625105971e-05
1.411,-0.03193911050545094,-1.4656319075929674e-05
1.412,-0.025551288404360755,-1.4232672586789427e-05
1.413,-0.028745199454905845,-1.3824796883385654e-05
1.414,-0.028745199454905845,-1.3292184007916057e-05
1.415,-0.028745199454905845,-1.2417534904903952e-05
1.416,-0.02235737735381566,-1.1465872454389484e-05
1.417,-0.03193911050545094,-1.0303574207535731e-05
1.418,-0.025551288404360755,-9.173663874159237e-06
1.419,-0.006387822101090189,-8.913862688982917e-06
1.42,0.01596955525272547,-9.003814879309551e-06
1.421,0.012775644202180378,-8.954804816845881e-06
1.422,0.01596955525272547,-8.946312802390915e-06
1.423,0.009581733151635281,-9.148418947096955e-06
1.424,0.009581733151635281,-9.244909796339245e-06
1.425,0.0031939110505450944,-9.563603672073565e-06
1.426,0.009581733151635281,-9.637176890080308e-06
1.427,-0.006387822101090189,-8.16841035796725e-06
1.428,-0.009581733151635281,-6.05613695759177e-06
1.429,0.009581733151635281,-3.4676400860485604e-06
1.43,-0.006387822101090189,-6.384856056374066e-07
1.431,-0.025551288404360755,1.4516219585835435e-06
1.432,-0.028745199454905845,3.436364111558498e-06
1.433,-0.025551288404360755,5.339706125332489e-06
1.434,-0.03193911050545094,7.3005353359799856e-06
1.435,-0.035133021555996034,1.0333281201864771e-05
1.436,-0.012775644202180378,1.3777755131345827e-05
1.437,-0.02235737735381566,1.6627683780765288e-05
1.438,-0.028745199454905845,1.9346269824635265e-05
1.439,0.0,2.281821919489601e-05
1.44,0.0,2.595121657644238e-05
1.441,-0.0031939110505450944,2.9302537054685955e-05
1.442,-0.0031939110505450944,3.181113532319426e-05
1.443,-0.0031939110505450944,3.017328267102952e-05
1.444,-0.0031939110505450944,2.6509508911692687e-05
1.445,-0.02235737735381566,2.1956926717676086e-05
1.446,-0.02235737735381566,1.6447659828604244e-05
1.447,-0.04152084365708622,1.0795865657285692e-05
1.448,-0.04152084365708622,4.803910806692133e-06
1.449,-0.06387822101090188,-1.934090559826046e-06
1.45,-0.060684309960356786,-8.969301398158601e-06
1.451,-0.05110257680872151,-1.545997467695414e-05
1.452,-0.04152084365708622,-2.1885612674359828e-05
1.453,-0.028745199454905845,-2.8267631354289323e-05
1.454,-0.035133021555996034,-3.4698690062757064e-05
1.455,-0.009581733151635281,-4.17390394056484e-05
1.456,-0.0031939110505450944,-4.891431963271401e-05
1.457,-0.0031939110505450944,-5.615806387042187e-05
1.458,-0.006387822101090189,-6.330261399392199e-05
1.459,-0.006387822101090189,-6.959616967453387e-05
1.46,-0.009581733151635281,-7.542469025613108e-05
1.461,-0.02235737735381566,-8.137270095895187e-05
1.462,-0.012775644202180378,-8.709359978293488e-05
1.463,-0.01596955525272547,-9.196938343252691e-05
1.464,-0.025551288404360755,-9.661885365097084e-05
1.465,-0.04471475470763132,-0.00010072212623538218
1.466,-0.047908665758176414,-0.00010480072550865878
1.467,-0.038326932606541124,-0.00011073851283818098
1.468,-0.03193911050545094,-0.00011729972557896978
1.469,-0.05110257680872151,-0.00012340890134339517
1.47,-0.04152084365708622,-0.00012938378496219312
1.471,-0.035133021555996034,-0.00013539925195557153
1.472,-0.038326932606541124,-0.00014084770704565855
1.473,-0.025551288404360755,-0.00014649398063445378
1.474,0.025551288404360755,-0.0001512497902196822
1.475,-0.006387822101090189,-0.00015235831480925238
1.476,-0.03193911050545094,-0.00015175676908655628
1.477,-0.038326932606541124,-0.00014928565588711502
1.478,-0.04152084365708622,-0.0001458244968806031
1.479,-0.035133021555996034,-0.00014444484252205652
1.48,-0.047908665758176414,-0.00014286131162035567
1.481,-0.05749039890981169,-0.0001412682283152778
1.482,-0.04471475470763132,-0.00013874632514617485
1.483,-0.02235737735381566,-0.00013082055368889584
1.484,-0.012775644202180378,-0.00012033191007648192
1.485,-0.012775644202180378,-0.00011078631771684047
1.486,0.0,-0.00010068187978212665
1.487,-0.009581733151635281,-8.766245972196568e-05
1.488,-0.006387822101090189,-7.494722294801838e-05
1.489,0.009581733151635281,-6.029678442770311e-05
1.49,0.0031939110505450944,-4.7400278579756296e-05
1.491,0.006387822101090189,-4.712293893198886e-05
1.492,0.0031939110505450944,-5.2200057199229e-05
1.493,-0.009581733151635281,-6.014613014245913e-05
1.494,-0.04152084365708622,-7.002170177302828e-05
1.495,-0.038326932606541124,-7.617338875076264e-05
1.496,-0.019163466303270562,-8.174859823923986e-05
1.497,-0.04471475470763132,-8.761374322030574e-05
1.498,-0.04471475470763132,-9.358837174487728e-05
1.499,-0.035133021555996034,-0.00010275104649290159
1.5,-0.05110257680872151,-0.000113101574377112
1.501,-0.04152084365708622,-0.00011974861594628774
1.502,-0.028745199454905845,-0.00012533056009690329
1.503,-0.019163466303270562,-0.00013589591977365402
1.504,-0.006387822101090189,-0.00014485405576410105
1.505,-0.0031939110505450944,-0.00015447374249065183
1.506,0.006387822101090189,-0.0001595243152012816
1.507,0.0,-0.00014224844329883615
1.508,-0.006387822101090189,-0.00011361424938432892
1.509,-0.012775644202180378,-8.237982166116843e-05
1.51,-0.02235737735381566,-4.5915778792785154e-05
1.511,-0.02235737735381566,-2.8081691338378124e-06
1.512,-0.009581733151635281,4.291423401498465e-05
1.513,-0.02235737735381566,9.466072955636842e-05
1.514,-0.025551288404360755,0.0001469838347884026
1.515,-0.038326932606541124,0.00018300954885272538
1.516,-0.028745199454905845,0.00021301743816290515
1.517,-0.03193911050545094,0.00024583567448090415
1.518,-0.04152084365708622,0.00027833415670929613
1.519,-0.02235737735381566,0.0003083632520963903
1.52,-0.01596955525272547,0.000340687458583801
1.521,-0.0031939110505450944,0.00036950791617947336
1.522,0.009581733151635281,0.0004025987138252694
1.523,0.0,0.00046151081819514357
1.524,-0.0031939110505450944,0.0005311721935953737
1.525,0.0031939110505450944,0.0006085109775454002
1.526,0.0,0.0006896596917827303
1.527,-0.012775644202180378,0.000758528860921022
1.528,-0.019163466303270562,0.0008252550819607899
1.529,-0.03193911050545094,0.0008903922124771526
1.53,-0.04471475470763132,0.0009558021955970726
1.531,-0.04152084365708622,0.001037251793757447
1.532,-0.05429648785926659,0.0011244217747709338
1.533,-0.05110257680872151,0.0012004760867098936
1.534,-0.028745199454905845,0.0012733291657508789
1.535,-0.05110257680872151,0.0013588461554759604
1.536,-0.038326932606541124,0.0014379583476511922
1.537,-0.035133021555996034,0.0015193359561400828
1.538,0.0,0.0015854726196979966
1.539,0.03193911050545094,0.0015805695463431628
1.54,0.02235737735381566,0.0015398662202848056
1.541,0.019163466303270562,0.0014853165790561752
1.542,0.02235737735381566,0.001413282962953541
1.543,0.0031939110505450944,0.001331180950516978
1.544,0.038326932606541124,0.0012410811909152988
1.545,0.035133021555996034,0.001134906219892881
1.546,0.02235737735381566,0.0010232787813600954
1.547,0.006387822101090189,0.0009333849662843855
1.548,-0.009581733151635281,0.0008490487139736423
1.549,-0.0031939110505450944,0.0007599866497662622
1.55,0.0,0.0006689534900420776
1.551,-0.01596955525272547,0.0005734065232720345
1.552,0.0,0.0004722788460273751
1.553,0.028745199454905845,0.0003723178184231483
1.554,0.0031939110505450944,0.0002666981123321512
1.555,0.0031939110505450944,0.0001384165220913311
1.556,0.03193911050545094,3.397221433400812e-07
1.557,0.025551288404360755,-0.00014755156348996004
1.558,0.009581733151635281,-0.00029946045414132083
1.559,0.012775644202180378,-0.00043601927175187925
1.56,-0.0031939110505450944,-0.0005704428111989558
1.561,0.0031939110505450944,-0.0007017011347224446
1.562,-0.009581733151635281,-0.0008340739701187851
1.563,-0.025551288404360755,-0.0009927877097818995
1.564,-0.025551288404360755,-0.0011613224933503161
1.565,-0.04152084365708622,-0.0013162460902951295
1.566,-0.04152084365708622,-0.0014678390367867588
1.567,-0.05110257680872151,-0.0016351560559299974
1.568,-0.035133021555996034,-0.0017939192354515163
1.569,-0.025551288404360755,-0.001956409410837754
1.57,-0.028745199454905845,-0.0020988818139021513
1.571,-0.02235737735381566,-0.002147455575756442
1.572,0.0,-0.002149072140209938
1.573,0.012775644202180378,-0.0021302580073708443
1.574,-0.012775644202180378,-0.0020882279141744746
1.575,-0.012775644202180378,-0.0020380509554447
1.576,-0.019163466303270562,-0.0019776975851917965
1.577,-0.025551288404360755,-0.001897639067678334
1.578,-0.019163466303270562,-0.0018089724693055081
1.579,-0.01596955525272547,-0.0017360616759210903
1.58,-0.02235737735381566,-0.0016647019643614037
1.581,-0.025551288404360755,-0.0015889770278592753
1.582,-0.02235737735381566,-0.0015093979323111887
1.583,-0.028745199454905845,-0.0014186071262774233
1.584,-0.04152084365708622,-0.0013212065750080487
1.585,-0.012775644202180378,-0.0012209383749265323
1.586,0.0,-0.0011165595400629404
1.587,0.019163466303270562,-0.00100789344265244
1.588,0.006387822101090189,-0.000896659350359457
1.589,0.019163466303270562,-0.0007789242048404301
1.59,0.025551288404360755,-0.0006591814860119699
1.591,0.03193911050545094,-0.0005484272128679165
1.592,0.038326932606541124,-0.000438107644591145
1.593,0.025551288404360755,-0.0003305247752693453
1.594,0.019163466303270562,-0.00022117880585396232
1.595,0.019163466303270562,-8.928894461293232e-05
1.596,0.009581733151635281,5.1578885525769885e-05
1.597,0.006387822101090189,0.00018453581426326163
1.598,-0.012775644202180378,0.00031645264829167083
1.599,-0.01596955525272547,0.00045882358490495224
1.6,-0.03193911050545094,0.0005958879274775782
1.601,-0.006387822101090189,0.0007364679110508513
1.602,-0.01596955525272547,0.0008641395709659449
1.603,-0.0031939110505450944,0.0009288256546600262
1.604,0.0031939110505450944,0.0009624345182746152
1.605,-0.0031939110505450944,0.0009817877970894854
1.606,0.025551288404360755,0.0009858805124094863
1.607,0.02235737735381566,0.0009872329122379072
1.608,0.012775644202180378,0.000982328760646755
1.609,0.02235737735381566,0.0009652182807037696
1.61,0.009581733151635281,0.000942071940264407
1.611,-0.0031939110505450944,0.0009241944633352903
1.612,-0.019163466303270562,0.0009051609056749468
1.613,-0.02235737735381566,0.000884335298020152
1.614,-0.01596955525272547,0.0008606769095972148
1.615,-0.019163466303270562,0.0008274878659679537
1.616,-0.025551288404360755,0.0007904728107531572
1.617,-0.028745199454905845,0.0007498301967794001
1.618,-0.02235737735381566,0.0007081454135295773
1.619,-0.0031939110505450944,0.0006750830741793028
1.62,-0.006387822101090189,0.0006450385696647165
1.621,-0.01596955525272547,0.0006137739597899643
1.622,-0.006387822101090189,0.0005827768894512434
1.623,0.0031939110505450944,0.0005526986287246585
1.624,0.0031939110505450944,0.0005219599305542768
1.625,-0.025551288404360755,0.0004924106022588829
1.626,-0.019163466303270562,0.00046170319825297236
1.627,0.006387822101090189,0.0004220685596082534
1.628,-0.025551288404360755,0.0003785172124382403
1.629,-0.04152084365708622,0.0003358167961854892
1.63,-0.038326932606541124,0.0002923904137371641
1.631,-0.04471475470763132,0.0002465332712782487
1.632,-0.01596955525272547,0.00020145705879401365
1.633,-0.02235737735381566,0.00015478754172376828
1.634,-0.05110257680872151,0.00011055552650413046
1.635,-0.05429648785926659,8.050533811984888e-05
1.636,-0.04152084365708622,5.714929603335591e-05
1.637,-0.02235737735381566,3.693756733395772e-05
1.638,0.0,1.983481365694721e-05
1.639,0.025551288404360755,2.178586251012015e-06
1.64,0.012775644202180378,-1.4499789324877037e-05
1.641,0.0,-2.8961550517655387e-05
1.642,0.006387822101090189,-4.219464218324517e-05
1.643,0.0,-5.51387297259208e-05
1.644,-0.006387822101090189,-6.731893163095562e-05
1.645,-0.012775644202180378,-7.964589713875753e-05
1.646,-0.01596955525272547,-9.142853985018065e-05
1.647,-0.012775644202180378,-0.00010057838951057294
1.648,-0.019163466303270562,-0.00010921367971989177
1.649,-0.006387822101090189,-0.00011660395050859746
1.65,-0.025551288404360755,-0.0001244395619462555
1.651,-0.04471475470763132,-0.00013806196623995272
1.652,-0.025551288404360755,-0.00015398783001657553
1.653,-0.006387822101090189,-0.00017081157097284034
1.654,0.0031939110505450944,-0.00018828898451427682
1.655,0.009581733151635281,-0.00020419503639957086
1.656,0.012775644202180378,-0.0002196676940821493
1.657,-0.006387822101090189,-0.00023515497964930705
1.658,-0.009581733151635281,-0.00025044180179972623
1.659,-0.009581733151635281,-0.0002661720129569684
1.66,-0.025551288404360755,-0.0002818683331486509
1.661,-0.025551288404360755,-0.00029624718919799074
1.662,-0.035133021555996034,-0.00030998293921672115
1.663,-0.04471475470763132,-0.00032463023608703774
1.664,-0.05429648785926659,-0.00033840984864665395
1.665,-0.038326932606541124,-0.0003521087722518011
1.666,-0.038326932606541124,-0.00036411553716398856
1.667,-0.06707213206144698,-0.00036941402741395667
1.668,-0.07984777626362735,-0.0003712386013322101
1.669,-0.05429648785926659,-0.00037112398546376853
1.67,-0.06387822101090188,-0.00036911411105337074
1.671,-0.025551288404360755,-0.00036682211971156953
1.672,-0.006387822101090189,-0.0003635946840652685
1.673,-0.01596955525272547,-0.00035892071325155665
1.674,-0.0031939110505450944,-0.00035323937706931835
1.675,-0.009581733151635281,-0.0003469392871430798
1.676,-0.012775644202180378,-0.0003398560962543184
1.677,-0.02235737735381566,-0.00033244825500689456
1.678,-0.0031939110505450944,-0.000324411690022937
1.679,-0.012775644202180378,-0.00031480613061712784
1.68,-0.025551288404360755,-0.00030462484509409196
1.681,-0.03193911050545094,-0.0002935619765751544
1.682,-0.035133021555996034,-0.0002824026595670229
1.683,-0.04152084365708622,-0.00027361867718440273
1.684,-0.038326932606541124,-0.00026564359525984617
1.685,-0.035133021555996034,-0.00025776618953173036
1.686,-0.02235737735381566,-0.00024996734127837516
1.687,-0.02235737735381566,-0.00024142696089884193
1.688,-0.009581733151635281,-0.00023252393580112973
1.689,0.0031939110505450944,-0.00022354152525258294
1.69,0.009581733151635281,-0.00021428597957604272
1.691,0.012775644202180378,-0.0002046504752696468
1.692,0.019163466303270562,-0.0001947130626771831
1.693,0.01596955525272547,-0.0001841239609742449
1.694,-0.0031939110505450944,-0.0001731544479659421
1.695,-0.006387822101090189,-0.0001625442881530093
1.696,0.0,-0.0001515931156626453
1.697,-0.01596955525272547,-0.0001404887845929102
1.698,-0.028745199454905845,-0.00012875716406355892
1.699,-0.025551288404360755,-0.00011468021315733962
1.7,-0.025551288404360755,-9.933541784090879e-05
1.701,-0.028745199454905845,-8.363634011468885e-05
1.702,-0.019163466303270562,-6.730245562650258e-05
1.703,-0.025551288404360755,-5.011453406122301e-05
1.704,-0.019163466303270562,-3.256548380422791e-05
1.705,0.006387822101090189,-1.4308638544850214e-05
1.706,0.019163466303270562,4.05193751053978e-06
1.707,0.02235737735381566,2.0637254604266448e-05
1.708,0.0031939110505450944,3.6578040929025395e-05
1.709,0.019163466303270562,5.2842659944007584e-05
1.71,0.0,6.90748930290272e-05
1.711,-0.028745199454905845,8.503598634769498e-05
1.712,-0.028745199454905845,0.00010124158755681147
1.713,-0.028745199454905845,0.0001170123864650814
1.714,-0.019163466303270562,0.00013322475372290607
1.715,0.0,0.0001522897718740448
1.716,-0.02235737735381566,0.00017248603648036963
1.717,-0.04471475470763132,0.00019355793801716082
1.718,-0.05110257680872151,0.00021497238652127046
1.719,-0.012775644202180378,0.00023469348546423517
1.72,0.0,0.0002540424020063146
1.721,0.012775644202180378,0.0002730033608210748
1.722,0.012775644202180378,0.00029190788352855674
1.723,0.019163466303270562,0.00031301359532061724
1.724,0.012775644202180378,0.0003348237909711913
1.725,0.009581733151635281,0.00035516714250114195
1.726,0.012775644202180378,0.00037499710702396387
1.727,-0.0031939110505450944,0.00039609772838574445
1.728,-0.012775644202180378,0.0004161834197260979
1.729,-0.009581733151635281,0.00043644378057008037
1.73,-0.019163466303270562,0.0004546042733048051
1.731,-0.035133021555996034,0.0004636822587076599
1.732,-0.028745199454905845,0.0004681473065363971
1.733,-0.028745199454905845,0.0004702761649809885
1.734,-0.025551288404360755,0.0004699982080506851
1.735,-0.012775644202180378,0.0004692301254867732
1.736,-0.009581733151635281,0.0004673411730977177
1.737,-0.0031939110505450944,0.00046354285334884894
1.738,0.0,0.0004586130532275509
1.739,0.009581733151635281,0.0004537797872463058
1.74,0.012775644202180378,0.0004483739034944091
1.741,0.009581733151635281,0.00044255443696905367
1.742,0.025551288404360755,0.0004360831989672944
1.743,0.012775644202180378,0.0004278995146010549
1.744,-0.006387822101090189,0.0004190000104491967
1.745,-0.025551288404360755,0.00040926054729353557
1.746,-0.012775644202180378,0.00039929113481427896
1.747,-0.025551288404360755,0.00039115091948062976
1.748,-0.03193911050545094,0.0003835855987897327
1.749,-0.03193911050545094,0.0003758679479753361
1.75,-0.03193911050545094,0.00036812944194055086
1.751,-0.035133021555996034,0.0003600492553671085
1.752,-0.025551288404360755,0.0003516577799368505
1.753,0.0031939110505450944,0.0003432620820542301
1.754,0.0031939110505450944,0.0003345528289083591
1.755,-0.006387822101090189,0.00032475386770372674
1.756,0.0,0.0003143724808597864
1.757,0.03193911050545094,0.0003036907038751891
1.758,0.01596955525272547,0.0002926907245746083
1.759,0.012775644202180378,0.00028156500337792484
1.76,-0.0031939110505450944,0.0002702839408052034
1.761,0.006387822101090189,0.0002587138061209143
1.762,0.006387822101090189,0.00024701051398272534
1.763,0.0,0.00023546382980577655
1.764,-0.012775644202180378,0.00022388143750651118
1.765,-0.01596955525272547,0.0002123710894549712
1.766,-0.01596955525272547,0.0002007918656773255
1.767,-0.025551288404360755,0.00018868210010815632
1.768,-0.009581733151635281,0.00017643366264374834
1.769,0.0031939110505450944,0.0001639967942200232
1.77,-0.0031939110505450944,0.00015157397137785853
1.771,0.0,0.00014000057819671638
1.772,-0.009581733151635281,0.00012876681067818189
1.773,0.0,0.00011730620358152638
1.774,0.035133021555996034,0.00010586371428912767
1.775,0.025551288404360755,9.476494148963012e-05
1.776,0.02235737735381566,8.354745961641873e-05
1.777,-0.006387822101090189,7.261700968078936e-05
1.778,-0.012775644202180378,6.137787838767186e-05
1.779,-0.012775644202180378,4.8117976288749944e-05
1.78,-0.009581733151635281,3.402725147094917e-05
1.781,-0.01596955525272547,1.9380031812552332e-05
1.782,-0.006387822101090189,4.455822031917213e-06
1.783,-0.02235737735381566,-9.542680243568408e-06
1.784,-0.02235737735381566,-2.3359526486525994e-05
1.785,-0.009581733151635281,-3.703618122740657e-05
1.786,-0.0031939110505450944,-5.070167512137232e-05
1.787,0.01596955525272547,-6.54849223330274e-05
1.788,0.0,-8.063065309036122e-05
1.789,0.01596955525272547,-9.496697716008019e-05
1.79,0.012775644202180378,-0.00010902186587681068
1.791,0.009581733151635281,-0.00012382441314095298
1.792,0.012775644202180378,-0.00013808539822192462
1.793,0.012775644202180378,-0.00015244655272247986
1.794,-0.006387822101090189,-0.0001656553668652968
1.795,-0.02235737735381566,-0.00017384325424991002
1.796,-0.035133021555996034,-0.00017948083289268376
1.797,-0.05749039890981169,-0.0001838548183040408
1.798,-0.07026604311199207,-0.00018690260030468668
1.799,-0.060684309960356786,-0.0001896273145591578
1.8,-0.06707213206144698,-0.00019172958173749535
1.801,-0.06387822101090188,-0.00019275888020104797
1.802,-0.05429648785926659,-0.00019317616534529012
1.803,-0.03193911050545094,-0.0001937850574840724
1.804,-0.02235737735381566,-0.0001941360548264884
1.805,-0.028745199454905845,-0.00019423149183749112
1.806,-0.012775644202180378,-0.00019397275248549242
1.807,-0.009581733151635281,-0.00019281692577946156
1.808,-0.025551288404360755,-0.00019124703590496682
1.809,0.01596955525272547,-0.0001892484785996555
1.81,0.0031939110505450944,-0.0001870727939801471
1.811,-0.01596955525272547,-0.00018561317497035992
1.812,-0.009581733151635281,-0.00018434089929593916
1.813,-0.006387822101090189,-0.00018290059250626492
1.814,-0.012775644202180378,-0.00018139336163149698
1.815,-0.02235737735381566,-0.00017978823193479148
1.816,-0.025551288404360755,-0.0001780135418556101
1.817,-0.04152084365708622,-0.00017622374578488807
1.818,-0.038326932606541124,-0.0001742408318289104
1.819,-0.02235737735381566,-0.0001715236683875843
1.82,-0.025551288404360755,-0.00016842410916865445
1.821,-0.03193911050545094,-0.0001652357334939082
1.822,-0.009581733151635281,-0.00016187811371662372
1.823,0.0,-0.00015830796224683863
1.824,0.006387822101090189,-0.00015467815406400686
1.825,-0.0031939110505450944,-0.00015084443281152037
1.826,-0.006387822101090189,-0.00014703886766645786
1.827,-0.012775644202180378,-0.00014390108430356786
1.828,-0.01596955525272547,-0.0001410225898895142
1.829,-0.02235737735381566,-0.00013825418709343838
1.83,-0.025551288404360755,-0.00013556348683559392
1.831,-0.047908665758176414,-0.00013266936627502328
1.832,-0.05429648785926659,-0.0001297343410232623
1.833,-0.04152084365708622,-0.00012680881200948006
1.834,-0.05110257680872151,-0.00012388977589016843
1.835,-0.025551288404360755,-0.00012111695750231348
1.836,-0.028745199454905845,-0.00011840141517174173
1.837,-0.012775644202180378,-0.00011557277211929184
1.838,-0.0031939110505450944,-0.00011272050640553402
1.839,-0.01596955525272547,-0.00011002170865649841
1.84,-0.0031939110505450944,-0.00010726908085108567
1.841,0.009581733151635281,-0.00010458880747380047
1.842,0.009581733151635281,-0.0001017661872787725
1.843,-0.02235737735381566,-9.815745857746966e-05
1.844,-0.04471475470763132,-9.419922727193162e-05
1.845,-0.05429648785926659,-9.002633472249496e-05
1.846,-0.038326932606541124,-8.571035000653522e-05
1.847,-0.035133021555996034,-8.162103352052571e-05
1.848,-0.028745199454905845,-7.75446827533696e-05
1.849,-0.04471475470763132,-7.344815187951178e-05
1.85,-0.05110257680872151,-6.931898643040584e-05
1.851,-0.03193911050545094,-6.48936573881229e-05
1.852,-0.01596955525272547,-6.035214609041481e-05
1.853,-0.02235737735381566,-5.600874259097449e-05
1.854,-0.02235737735381566,-5.1716439806174373e-05
1.855,-0.009581733151635281,-4.71713654649757e-05
1.856,0.009581733151635281,-4.2743246945206776e-05
1.857,0.009581733151635281,-3.8259648774789575e-05
1.858,0.006387822101090189,-3.406802217068879e-05
1.859,0.006387822101090189,-3.124958706777558e-05
1.86,-0.009581733151635281,-2.9115983987259208e-05
1.861,-0.01596955525272547,-2.730058083108131e-05
1.862,-0.012775644202180378,-2.5828041203431157e-05
1.863,-0.019163466303270562,-2.4435578673090937e-05
1.864,-0.025551288404360755,-2.3192491038170033e-05
1.865,-0.03193911050545094,-2.222893878858155e-05
1.866,-0.012775644202180378,-2.1407671092384338e-05
1.867,-0.012775644202180378,-2.046840764144255e-05
1.868,-0.0031939110505450944,-1.9560060489812235e-05
1.869,0.009581733151635281,-1.870743810175341e-05
1.87,0.006387822101090189,-1.7928575439579943e-05
1.871,0.0,-1.7362196890893262e-05
1.872,0.006387822101090189,-1.689401478270306e-05
1.873,0.009581733151635281,-1.6512577596623332e-05
1.874,0.006387822101090189,-1.6173224068049938e-05
1.875,-0.01596955525272547,-1.5699414958887594e-05
1.876,0.006387822101090189,-1.5190420382030845e-05
1.877,0.01596955525272547,-1.4731519885789973e-05
1.878,0.012775644202180378,-1.428676179197748e-05
1.879,0.025551288404360755,-1.3822748135075674e-05
1.88,-0.009581733151635281,-1.3385115798283087e-05
1.881,-0.038326932606541124,-1.2935827888901726e-05
1.882,-0.047908665758176414,-1.2526412228067255e-05
1.883,-0.035133021555996034,-1.233928049045513e-05
1.884,-0.035133021555996034,-1.2256739336738315e-05
1.885,-0.035133021555996034,-1.2157700739180902e-05
1.886,-0.012775644202180378,-1.2085353927059176e-05
1.887,-0.012775644202180378,-1.2095960614327855e-05
1.888,-0.006387822101090189,-1.2097938920256056e-05
1.889,0.0,-1.2151721308467368e-05
1.89,-0.009581733151635281,-1.2151028147799564e-05
1.891,-0.009581733151635281,-1.1779350357006992e-05
1.892,-0.019163466303270562,-1.1237901019452295e-05
1.893,-0.02235737735381566,-1.0630377207255008e-05
1.894,-0.009581733151635281,-9.951664466591297e-06
1.895,-0.012775644202180378,-9.284609734788565e-06
1.896,-0.025551288404360755,-8.602733711616735e-06
1.897,-0.025551288404360755,-7.869080150206173e-06
1.898,-0.04152084365708622,-7.119704474675964e-06
1.899,-0.025551288404360755,-6.4160158982161644e-06
1.9,-0.03193911050545094,-5.723005409408128e-06
1.901,-0.025551288404360755,-5.042241122924045e-06
1.902,-0.025551288404360755,-4.3644247996755655e-06
1.903,-0.02235737735381566,-3.6443075734685043e-06
1.904,-0.006387822101090189,-2.921804936265537e-06
1.905,0.0031939110505450944,-2.193470121603931e-06
1.906,0.012775644202180378,-1.481389819554484e-06
1.907,-0.0031939110505450944,-8.6323186217449e-07
1.908,-0.006387822101090189,-2.91277655524993e-07
1.909,0.0031939110505450944,2.6326831895896103e-07
1.91,0.009581733151635281,7.950322455834037e-07
1.911,0.0031939110505450944,1.3144342749902934e-06
1.912,0.006387822101090189,1.822421168806188e-06
1.913,-0.012775644202180378,2.307861773319143e-06
1.914,-0.01596955525272547,2.7833450017343244e-06
1.915,-0.025551288404360755,3.2820625919532693e-06
1.916,-0.01596955525272547,3.78345091510302e-06
1.917,-0.028745199454905845,4.27239727783419e-06
1.918,-0.006387822101090189,4.752948861782221e-06
1.919,0.009581733151635281,5.225159634959321e-06
1.92,-0.006387822101090189,5.683825767547853e-06
1.921,-0.01596955525272547,6.135665045443019e-06
1.922,0.019163466303270562,6.571189628515062e-06
1.923,-0.006387822101090189,6.963275337951125e-06
1.924,-0.0031939110505450944,7.329154684518792e-06
1.925,-0.009581733151635281,7.679039666188212e-06
1.926,-0.025551288404360755,8.011588964793124e-06
1.927,-0.04152084365708622,8.33147049368081e-06
1.928,-0.02235737735381566,8.638782543235784e-06
1.929,-0.006387822101090189,8.92986343574022e-06
1.93,-0.025551288404360755,9.209317738113063e-06
1.931,-0.04152084365708622,9.488101211751341e-06
1.932,-0.04152084365708622,9.75980734024616e-06
1.933,-0.04471475470763132,1.0020940909191302e-05
1.934,-0.047908665758176414,1.0272288178693576e-05
1.935,-0.04471475470763132,1.0511954808330109e-05
1.936,-0.038326932606541124,1.0740554204698235e-05
1.937,-0.028745199454905845,1.0960367005704112e-05
1.938,-0.012775644202180378,1.1169615153127014e-05
1.939,0.0031939110505450944,1.1364299291101093e-05
1.94,0.0,1.1547767955195783e-05
1.941,0.0,1.1719495861513016e-05
1.942,0.0,1.1881559131264124e-05
1.943,0.0,1.2040204821375114e-05
1.944,-0.012775644202180378,1.2191108959285556e-05
1.945,0.0,1.2334857625781741e-05
1.946,-0.0031939110505450944,1.2469873881156862e-05
1.947,-0.01596955525272547,1.2587270451164586e-05
1.948,-0.03193911050545094,1.2692913186348542e-05
1.949,-0.028745199454905845,1.279500211505863e-05
1.95,-0.04471475470763132,1.2890014730495485e-05
1.951,-0.038326932606541124,1.2971408552633615e-05
1.952,-0.025551288404360755,1.304760480775965e-05
1.953,-0.009581733151635281,1.3114505732622123e-05
1.954,-0.012775644202180378,1.31802525733702e-05
1.955,0.0031939110505450944,1.327028852954189e-05
1.956,0.0,1.3368611428175188e-05
1.957,0.009581733151635281,1.34656196440341e-05
1.958,-0.0031939110505450944,1.3562775519460702e-05
1.959,-0.006387822101090189,1.3656096307064599e-05
1.96,-0.012775644202180378,1.3745308283954823e-05
1.961,-0.006387822101090189,1.3834040313402815e-05
1.962,-0.006387822101090189,1.391786377045595e-05
1.963,0.0,1.3985895490038727e-05
1.964,-0.012775644202180378,1.4044707094599098e-05
1.965,-0.009581733151635281,1.4097938767794885e-05
1.966,-0.01596955525272547,1.4144921277645096e-05
1.967,-0.038326932606541124,1.418774203828664e-05
1.968,-0.028745199454905845,1.422589807628171e-05
1.969,-0.012775644202180378,1.4257002489810234e-05
1.97,-0.02235737735381566,1.4283168256508913e-05
1.971,-0.01596955525272547,1.4308825432506066e-05
1.972,-0.035133021555996034,1.4330384055647095e-05
1.973,0.006387822101090189,1.4349229299015208e-05
1.974,0.028745199454905845,1.4362649935972336e-05
1.975,0.009581733151635281,1.4362563752676232e-05
1.976,0.0031939110505450944,1.435507811759779e-05
1.977,-0.028745199454905845,1.433919887748176e-05
1.978,-0.025551288404360755,1.4317692646354498e-05
1.979,-0.025551288404360755,1.4303707762801737e-05
1.98,-0.028745199454905845,1.428876765277353e-05
1.981,-0.03193911050545094,1.4262417725005682e-05
1.982,-0.04471475470763132,1.4229002655479454e-05
1.983,-0.03193911050545094,1.4195512065099442e-05
1.984,0.0,1.4152312245259616e-05
1.985,-0.0031939110505450944,1.410552413102406e-05
1.986,-0.02235737735381566,1.404452311283112e-05
1.987,-0.0031939110505450944,1.3937617769868232e-05
1.988,0.01596955525272547,1.3805549689888314e-05
1.989,0.02235737735381566,1.3656954231569442e-05
1.99,0.02235737735381566,1.3493172923268533e-05
1.991,0.01596955525272547,1.3327017326541704e-05
1.992,0.025551288404360755,1.3152200336015943e-05
1.993,0.009581733151635281,1.2966121447427909e-05
1.994,-0.006387822101090189,1.2770284871512194e-05
1.995,-0.006387822101090189,1.2561794384667811e-05
1.996,-0.01596955525272547,1.2343089869712004e-05
1.997,-0.02235737735381566,1.2120867865348677e-05
1.998,-0.038326932606541124,1.1891775076338955e-05
1.999,-0.04152084365708622,1.164792217676899e-05
2.0,-0.047908665758176414,1.1398669884407802e-05
2.001,-0.047908665758176414,1.1139751707096898e-05
2.002,-0.01596955525272547,1.0879955524248604e-05
2.003,0.009581733151635281,1.0645818703900352e-05
2.004,0.02235737735381566,1.0420182380096385e-05
2.005,0.0031939110505450944,1.0196457413439658e-05
2.006,-0.009581733151635281,9.973353454039783e-06
2.007,-0.012775644202180378,9.739365889241032e-06
2.008,-0.006387822101090189,9.500732873958152e-06
2.009,0.012775644202180378,9.259995055048572e-06
2.01,0.006387822101090189,9.016201384706011e-06
2.011,-0.0031939110505450944,8.77339004331199e-06
2.012,-0.0031939110505450944,8.529112416086889e-06
2.013,-0.009581733151635281,8.275278511452558e-06
2.014,-0.012775644202180378,8.01670151541211e-06
2.015,-0.01596955525272547,7.764656763083305e-06
2.016,-0.009581733151635281,7.507385707060224e-06
2.017,-0.025551288404360755,7.2491016982584575e-06
2.018,-0.025551288404360755,6.980570216802082e-06
2.019,-0.006387822101090189,6.670238900584728e-06
2.02,0.0,6.337989688435381e-06
2.021,-0.012775644202180378,5.998845542994895e-06
2.022,0.009581733151635281,5.64894279627243e-06
2.023,0.025551288404360755,5.287645588219009e-06
2.024,0.009581733151635281,4.920803241703071e-06
2.025,-0.006387822101090189,4.542806167136975e-06
2.026,0.0,4.162691534174479e-06
2.027,-0.01596955525272547,3.807165888121018e-06
2.028,-0.02235737735381566,3.4602377447915494e-06
2.029,-0.02235737735381566,3.1090377200133063e-06
2.03,-0.02235737735381566,2.7580947207712017e-06
2.031,-0.03193911050545094,2.4094420595542572e-06
2.032,-0.03193911050545094,2.0572533544820377e-06
2.033,-0.009581733151635281,1.7104831722888993e-06
2.034,-0.038326932606541124,1.35806356817408e-06
2.035,-0.038326932606541124,9.699058553107925e-07
2.036,-0.025551288404360755,5.676957823475975e-07
2.037,-0.028745199454905845,1.5424803901181225e-07
2.038,0.0,-2.633039539722694e-07
2.039,0.02235737735381566,-6.583981237243353e-07
2.04,0.0031939110505450944,-1.0483726111661653e-06
2.041,0.012775644202180378,-1.4328085873712092e-06
2.042,0.0031939110505450944,-1.816245327555324e-06
2.043,-0.0031939110505450944,-2.2289041813011445e-06
2.044,-0.012775644202180378,-2.6507579569215935e-06
2.045,-0.01596955525272547,-3.052846455325208e-06
2.046,-0.01596955525272547,-3.447859596125641e-06
2.047,-0.028745199454905845,-3.859544721126264e-06
2.048,-0.038326932606541124,-4.257479199118868e-06
2.049,-0.038326932606541124,-4.657350240533564e-06
2.05,-0.038326932606541124,-5.029009751377061e-06
2.051,-0.038326932606541124,-5.2796857741052674e-06
2.052,-0.025551288404360755,-5.468629410790466e-06
2.053,-0.025551288404360755,-5.6266993825993626e-06
2.054,-0.01596955525272547,-5.7523968959533886e-06
2.055,0.0,-5.869782089122431e-06
2.056,0.019163466303270562,-5.9716763230116625e-06
2.057,0.009581733151635281,-6.047277883403671e-06
2.058,0.0,-6.107642528658926e-06
2.059,0.0,-6.172041335562952e-06
2.06,-0.019163466303270562,-6.229698617239072e-06
2.061,-0.019163466303270562,-6.28067465037621e-06
2.062,-0.006387822101090189,-6.322605700653546e-06
2.063,-0.012775644202180378,-6.342472779640391e-06
2.064,-0.028745199454905845,-6.351863479733815e-06
2.065,-0.038326932606541124,-6.350428390604517e-06
2.066,-0.03193911050545094,-6.344204061957262e-06
2.067,-0.04471475470763132,-6.3546190274638765e-06
2.068,-0.038326932606541124,-6.36899167390833e-06
2.069,-0.025551288404360755,-6.378800013148877e-06
2.07,-0.012775644202180378,-6.386470534156202e-06
2.071,-0.01596955525272547,-6.391259785895353e-06
2.072,0.0031939110505450944,-6.391452683411138e-06
2.073,0.0,-6.3907560814250124e-06
2.074,-0.02235737735381566,-6.384902652605715e-06
2.075,0.028745199454905845,-6.360917895287904e-06
2.076,0.038326932606541124,-6.327241586698127e-06
2.077,0.009581733151635281,-6.29091408306961e-06
2.078,0.006387822101090189,-6.250010132159068e-06
2.079,-0.009581733151635281,-6.20349740774649e-06
2.08,-0.02235737735381566,-6.155040559348201e-06
2.081,0.0,-6.101182958172876e-06
2.082,-0.019163466303270562,-6.047489754922278e-06
2.083,-0.038326932606541124,-6.009293420678468e-06
2.084,-0.025551288404360755,-5.976805004517072e-06
2.085,-0.01596955525272547,-5.946454574937801e-06
2.086,0.0,-5.917464863023693e-06
2.087,-0.0031939110505450944,-5.883092103419405e-06
2.088,-0.0031939110505450944,-5.8472408062636506e-06
2.089,0.012775644202180378,-5.811119365926482e-06
2.09,0.0031939110505450944,-5.774662378669875e-06
2.091,0.0,-5.741238478301376e-06
2.092,0.009581733151635281,-5.708707164215464e-06
2.093,0.0031939110505450944,-5.672975082600788e-06
2.094,-0.025551288404360755,-5.6361939050334e-06
2.095,-0.04152084365708622,-5.602616855048509e-06
2.096,-0.01596955525272547,-5.567267968071213e-06
2.097,-0.028745199454905845,-5.533181559257647e-06
2.098,-0.04152084365708622,-5.495201866406971e-06
2.099,-0.019163466303270562,-5.4378666340210775e-06
2.1,-0.025551288404360755,-5.371666162720877e-06
2.101,-0.05110257680872151,-5.299841653817627e-06
2.102,-0.038326932606541124,-5.224114559368135e-06
2.103,-0.025551288404360755,-5.153369729951837e-06
2.104,-0.012775644202180378,-5.082475543972325e-06
2.105,0.009581733151635281,-5.010637512693967e-06
2.106,0.035133021555996034,-4.937558900867843e-06
2.107,-0.0031939110505450944,-4.856911494433541e-06
2.108,0.0,-4.773020511920605e-06
2.109,0.0,-4.6934398017557555e-06
2.11,-0.0031939110505450944,-4.614638513657951e-06
2.111,-0.006387822101090189,-4.529314714815277e-06
2.112,-0.01596955525272547,-4.446355842207098e-06
2.113,-0.012775644202180378,-4.361622035743986e-06
2.114,-0.01596955525272547,-4.2834630590524285e-06
2.115,-0.028745199454905845,-4.237861475515528e-06
2.116,-0.02235737735381566,-4.2082799287821825e-06
2.117,-0.028745199454905845,-4.18590346099625e-06
2.118,-0.019163466303270562,-4.171332899833439e-06
2.119,0.006387822101090189,-4.158271469295477e-06
2.12,-0.012775644202180378,-4.148372501340755e-06
2.121,0.0,-4.1447692670157685e-06
2.122,0.012775644202180378,-4.144157268555371e-06
2.123,0.02235737735381566,-4.140250280958953e-06
2.124,0.028745199454905845,-4.1366499485554e-06
2.125,0.012775644202180378,-4.133977142876753e-06
2.126,0.0,-4.132658318294198e-06
2.127,-0.019163466303270562,-4.136017619972714e-06
2.128,-0.025551288404360755,-4.141328532302376e-06
2.129,-0.025551288404360755,-4.148302815988079e-06
2.13,-0.047908665758176414,-4.1558923970717985e-06
2.131,-0.04471475470763132,-4.159922720775289e-06
2.132,-0.028745199454905845,-4.162736517993431e-06
2.133,-0.047908665758176414,-4.166374328231841e-06
2.134,-0.038326932606541124,-4.16996471560778e-06
2.135,-0.012775644202180378,-4.172663383743473e-06
2.136,-0.038326932606541124,-4.175596364046927e-06
2.137,-0.038326932606541124,-4.1778542841965295e-06
2.138,-0.019163466303270562,-4.180681658466458e-06
2.139,-0.0031939110505450944,-4.1885034703171316e-06
2.14,0.012775644202180378,-4.198467850694971e-06
2.141,0.012775644202180378,-4.207624561633829e-06
2.142,0.009581733151635281,-4.21703378675647e-06
2.143,-0.009581733151635281,-4.228090022050508e-06
2.144,-0.01596955525272547,-4.238546145488636e-06
2.145,-0.019163466303270562,-4.249879478866691e-06
2.146,-0.019163466303270562,-4.259492917784227e-06
2.147,-0.028745199454905845,-4.25963968476745e-06
2.148,-0.04152084365708622,-4.255248309058554e-06
2.149,-0.02235737735381566,-4.248865590379165e-06
2.15,-0.025551288404360755,-4.2403646839237275e-06
2.151,-0.025551288404360755,-4.2317658772843105e-06
2.152,-0.019163466303270562,-4.222433328888138e-06
2.153,-0.012775644202180378,-4.2114617797687194e-06
2.154,0.0,-4.199743329735787e-06
2.155,0.009581733151635281,-4.188809056746739e-06
2.156,0.0031939110505450944,-4.177788467317907e-06
2.157,0.0,-4.166708603364003e-06
2.158,0.0031939110505450944,-4.155348964420141e-06
2.159,0.009581733151635281,-4.142606838557514e-06
2.16,-0.009581733151635281,-4.129454243221112e-06
2.161,-0.01596955525272547,-4.115820753421528e-06
2.162,-0.012775644202180378,-4.102234681146552e-06
2.163,-0.012775644202180378,-4.090562502152318e-06
2.164,-0.009581733151635281,-4.079666102191413e-06
2.165,-0.028745199454905845,-4.0688382470247675e-06
2.166,-0.028745199454905845,-4.058228232131712e-06
2.167,-0.038326932606541124,-4.047632646029477e-06
2.168,-0.028745199454905845,-4.036994016843949e-06
2.169,0.0031939110505450944,-4.0265929595849365e-06
2.17,0.0,-4.016107178118993e-06
2.171,0.012775644202180378,-4.004649884395699e-06
2.172,0.03193911050545094,-3.9927771300462005e-06
2.173,0.035133021555996034,-3.980916826665089e-06
2.174,0.028745199454905845,-3.968951298857499e-06
2.175,0.028745199454905845,-3.956853420623678e-06
2.176,0.025551288404360755,-3.944798626883969e-06
2.177,-0.0031939110505450944,-3.932587356659631e-06
2.178,0.0,-3.920513816308135e-06
2.179,0.0,-3.90940973541617e-06
2.18,-0.019163466303270562,-3.898743405170831e-06
2.181,-0.02235737735381566,-3.888248063392184e-06
2.182,-0.035133021555996034,-3.877929926060225e-06
2.183,-0.025551288404360755,-3.867554165033076e-06
2.184,-0.009581733151635281,-3.8572031923083164e-06
2.185,-0.012775644202180378,-3.84696988855822e-06
2.186,-0.01596955525272547,-3.836766472497032e-06
2.187,-0.019163466303270562,-3.826463722354758e-06
2.188,-0.006387822101090189,-3.816131849476812e-06
2.189,0.0,-3.8057417537608024e-06
2.19,-0.009581733151635281,-3.7953268729815536e-06
2.191,0.0,-3.785019809321801e-06
2.192,0.0,-3.77469408174648e-06
2.193,-0.01596955525272547,-3.764372383072733e-06
2.194,-0.02235737735381566,-3.753971823619226e-06
2.195,-0.025551288404360755,-3.7432165140525423e-06
2.196,-0.025551288404360755,-3.7322779393225704e-06
2.197,-0.038326932606541124,-3.7212490404813757e-06
2.198,-0.035133021555996034,-3.7101191138237527e-06
2.199,-0.028745199454905845,-3.698947150014126e-06
2.2,-0.04471475470763132,-3.6877180216526625e-06
2.201,-0.04471475470763132,-3.6763943752479e-06
2.202,-0.04152084365708622,-3.6650123315462253e-06
2.203,-0.035133021555996034,-3.653648245998508e-06
2.204,-0.019163466303270562,-3.6422533862283223e-06
2.205,-0.0031939110505450944,-3.63081413048597e-06
2.206,0.012775644202180378,-3.6193239527420507e-06
2.207,0.02235737735381566,-3.607741356430247e-06
2.208,0.012775644202180378,-3.5960932486612374e-06
2.209,0.006387822101090189,-3.5843862223053373e-06
2.21,-0.012775644202180378,-3.572622854179053e-06
2.211,-0.009581733151635281,-3.560834894827724e-06
2.212,-0.012775644202180378,-3.5490045011760405e-06
2.213,-0.019163466303270562,-3.5370934937314616e-06
2.214,-0.028745199454905845,-3.525123760038862e-06
2.215,-0.025551288404360755,-3.5131425966395093e-06
2.216,-0.03193911050545094,-3.501101197298585e-06
2.217,-0.04152084365708622,-3.489015915675241e-06
2.218,-0.025551288404360755,-3.4768504205521616e-06
2.219,-0.009581733151635281,-3.4644727820398717e-06
2.22,0.0,-3.4519642437566864e-06
2.221,-0.0031939110505450944,-3.4394050474226464e-06
2.222,0.012775644202180378,-3.426763761943114e-06
2.223,0.012775644202180378,-3.4140065975777446e-06
2.224,0.006387822101090189,-3.401189694545035e-06
2.225,0.006387822101090189,-3.3882568861252024e-06
2.226,0.0,-3.3752881010073955e-06
2.227,-0.009581733151635281,-3.362507176088911e-06
2.228,-0.009581733151635281,-3.3497579255885492e-06
2.229,-0.03193911050545094,-3.3370117747312348e-06
2.23,-0.025551288404360755,-3.3242265858208538e-06
2.231,-0.02235737735381566,-3.3112304835926934e-06
2.232,-0.025551288404360755,-3.29813425971232e-06
2.233,-0.060684309960356786,-3.2849402449401333e-06
2.234,-0.02235737735381566,-3.2716736940871856e-06
2.235,0.009581733151635281,-3.2585149072600135e-06
2.236,0.012775644202180378,-3.245345110958192e-06
2.237,0.0031939110505450944,-3.2319892784800453e-06
2.238,0.012775644202180378,-3.2185256409268675e-06
2.239,0.019163466303270562,-3.2051008779621707e-06
2.24,0.012775644202180378,-3.1915289989286905e-06
2.241,0.01596955525272547,-3.1779085193983196e-06
2.242,0.009581733151635281,-3.1640537448203546e-06
2.243,-0.028745199454905845,-3.149395030086196e-06
2.244,-0.038326932606541124,-3.134299120006837e-06
2.245,-0.028745199454905845,-3.1189471838853617e-06
2.246,-0.025551288404360755,-3.103338947247416e-06
2.247,-0.035133021555996034,-3.0876438522652837e-06
2.248,-0.07345995416253714,-3.0718004398342025e-06
2.249,-0.05110257680872151,-3.0557476771462977e-06
2.25,-0.05749039890981169,-3.0395434282437298e-06
2.251,-0.047908665758176414,-3.0232627610665804e-06
2.252,-0.03193911050545094,-3.0068680104821622e-06
2.253,-0.019163466303270562,-2.9903909955570866e-06
2.254,-0.012775644202180378,-2.9738055782898605e-06
2.255,-0.0031939110505450944,-2.9570155819176534e-06
2.256,0.0031939110505450944,-2.940118061655141e-06
2.257,-0.0031939110505450944,-2.923092146250068e-06
2.258,-0.0031939110505450944,-2.9060065014657127e-06
2.259,-0.006387822101090189,-2.88908293767823e-06
2.26,-0.01596955525272547,-2.8721841648334715e-06
2.261,0.0,-2.855239728317244e-06
2.262,-0.012775644202180378,-2.8382560849321487e-06
2.263,-0.02235737735381566,-2.8211791813275667e-06
2.264,-0.035133021555996034,-2.8040282966202864e-06
2.265,-0.038326932606541124,-2.7868333110204787e-06
2.266,-0.04152084365708622,-2.7695690961187e-06
2.267,-0.025551288404360755,-2.752189693768573e-06
2.268,-0.028745199454905845,-2.734726419000501e-06
2.269,-0.006387822101090189,-2.717177359428563e-06
2.27,-0.01596955525272547,-2.6995555171881928e-06
2.271,0.006387822101090189,-2.681908660546418e-06
2.272,-0.0031939110505450944,-2.6642008597247444e-06
2.273,0.009581733151635281,-2.6464336408854555e-06
2.274,0.009581733151635281,-2.6285933167329728e-06
2.275,0.012775644202180378,-2.6106119721151845e-06
2.276,0.019163466303270562,-2.592531505760741e-06
2.277,0.009581733151635281,-2.5744075260704e-06
2.278,0.006387822101090189,-2.5562150560914844e-06
2.279,0.0,-2.537908444441491e-06
2.28,-0.03193911050545094,-2.519542474101521e-06
2.281,-0.03193911050545094,-2.50109581682704e-06
2.282,-0.025551288404360755,-2.4826146764350607e-06
2.283,-0.038326932606541124,-2.4642584011477247e-06
2.284,-0.035133021555996034,-2.445930954409466e-06
2.285,-0.006387822101090189,-2.427538863924265e-06
2.286,-0.0031939110505450944,-2.4091199973138536e-06
2.287,0.0031939110505450944,-2.390714212921841e-06
2.288,0.019163466303270562,-2.372257858707721e-06
2.289,0.025551288404360755,-2.353816102025243e-06
2.29,0.009581733151635281,-2.3352986062183394e-06
2.291,0.006387822101090189,-2.316448168167716e-06
2.292,-0.0031939110505450944,-2.2974450084376124e-06
2.293,-0.012775644202180378,-2.2783301263005668e-06
2.294,-0.01596955525272547,-2.2591472428882353e-06
2.295,-0.028745199454905845,-2.240080973669908e-06
2.296,-0.028745199454905845,-2.22101781812881e-06
2.297,-0.038326932606541124,-2.201951395818958e-06
2.298,-0.028745199454905845,-2.182863000130259e-06
2.299,-0.009581733151635281,-2.16358004480383e-06
2.3,-0.035133021555996034,-2.1442179991810926e-06
2.301,-0.047908665758176414,-2.1249621576086807e-06
2.302,-0.02235737735381566,-2.1057278854181715e-06
2.303,-0.028745199454905845,-2.086346048622036e-06
2.304,-0.025551288404360755,-2.0670247947808778e-06
2.305,-0.012775644202180378,-2.0476672671717e-06
2.306,-0.0031939110505450944,-2.0284688709624265e-06
2.307,0.0031939110505450944,-2.010042646558137e-06
2.308,0.0,-1.9920009057861833e-06
2.309,0.0031939110505450944,-1.9741192948161834e-06
2.31,0.0031939110505450944,-1.9564258465348657e-06
2.311,0.0,-1.9388073608696297e-06
2.312,-0.012775644202180378,-1.921271510625662e-06
2.313,-0.03193911050545094,-1.903900189135633e-06
2.314,-0.05749039890981169,-1.8865962478621878e-06
2.315,-0.06387822101090188,-1.8691347365278091e-06
2.316,-0.009581733151635281,-1.8516486839770539e-06
2.317,0.0,-1.8342046132160676e-06
2.318,-0.006387822101090189,-1.8167917698290043e-06
2.319,-0.012775644202180378,-1.799461356268596e-06
2.32,-0.01596955525272547,-1.7821902521986416e-06
2.321,-0.0031939110505450944,-1.7649376692316078e-06
2.322,-0.0031939110505450944,-1.7477312383567964e-06
2.323,0.0,-1.730622826340344e-06
2.324,0.0031939110505450944,-1.7135655658844988e-06
2.325,0.012775644202180378,-1.6965796205724403e-06
2.326,0.006387822101090189,-1.6796252588068278e-06
2.327,0.0031939110505450944,-1.6625891226385916e-06
2.328,0.0031939110505450944,-1.6455541564874566e-06
2.329,-0.028745199454905845,-1.6285068951674125e-06
2.33,-0.04152084365708622,-1.6114821851328955e-06
2.331,-0.038326932606541124,-1.594659244678062e-06
2.332,-0.03193911050545094,-1.5779220679619597e-06
2.333,-0.035133021555996034,-1.5611123679442023e-06
2.334,-0.047908665758176414,-1.5442989636854959e-06
2.335,-0.047908665758176414,-1.5276063489790042e-06
2.336,-0.012775644202180378,-1.5108752099750207e-06
2.337,-0.006387822101090189,-1.4941860576582839e-06
2.338,0.009581733151635281,-1.477383499676806e-06
2.339,0.01596955525272547,-1.4599803223646223e-06
2.34,-0.006387822101090189,-1.4422848280207072e-06
2.341,-0.0031939110505450944,-1.4244824188712e-06
2.342,-0.006387822101090189,-1.4065462171262596e-06
2.343,-0.012775644202180378,-1.3885538741425316e-06
2.344,-0.0031939110505450944,-1.370511719762499e-06
2.345,-0.01596955525272547,-1.3523514217171705e-06
2.346,-0.02235737735381566,-1.3341589486531052e-06
2.347,-0.028745199454905845,-1.3161439496313047e-06
2.348,-0.02235737735381566,-1.2981818024487214e-06
2.349,-0.019163466303270562,-1.2802034302699875e-06
2.35,-0.04152084365708622,-1.2622232530569567e-06
2.351,-0.028745199454905845,-1.2442036841190633e-06
2.352,-0.01596955525272547,-1.2261545116002942e-06
2.353,-0.02235737735381566,-1.2081224684787702e-06
2.354,-0.009581733151635281,-1.1900680150154524e-06
2.355,0.019163466303270562,-1.1719055624964458e-06
2.356,0.02235737735381566,-1.153705917835742e-06
2.357,0.012775644202180378,-1.1354467295453494e-06
2.358,0.01596955525272547,-1.1171790566063307e-06
2.359,0.019163466303270562,-1.0990543614513726e-06
2.36,0.0031939110505450944,-1.0809612001236583e-06
2.361,0.0,-1.0629180123148904e-06
2.362,0.006387822101090189,-1.0448763449476445e-06
2.363,-0.0031939110505450944,-1.0265975284213616e-06
2.364,-0.028745199454905845,-1.0082372861912472e-06
2.365,-0.047908665758176414,-9.899908595722068e-07
2.366,-0.05110257680872151,-9.717778825001706e-07
2.367,-0.05110257680872151,-9.534655640276671e-07
2.368,-0.03193911050545094,-9.352368956619633e-07
2.369,-0.019163466303270562,-9.16981101834453e-07
2.37,-0.009581733151635281,-8.988961376050768e-07
2.371,-0.01596955525272547,-8.815745258986499e-07
2.372,0.006387822101090189,-8.646319372444464e-07
2.373,0.012775644202180378,-8.478995469295631e-07
2.374,0.0,-8.313612034923624e-07
2.375,0.009581733151635281,-8.147985501417397e-07
2.376,0.0,-7.983129547105379e-07
2.377,-0.012775644202180378,-7.819586508675365e-07
2.378,-0.012775644202180378,-7.656982465403476e-07
2.379,-0.006387822101090189,-7.49544882126068e-07
2.38,-0.025551288404360755,-7.334808025831299e-07
2.381,-0.04152084365708622,-7.174105670809406e-07
2.382,-0.04152084365708622,-7.013868211819691e-07
2.383,-0.038326932606541124,-6.855437837629058e-07
2.384,-0.028745199454905845,-6.697301363993629e-07
2.385,-0.047908665758176414,-6.540080176438004e-07
2.386,-0.028745199454905845,-6.382433482041872e-07
2.387,-0.019163466303270562,-6.220237725887917e-07
2.388,-0.009581733151635281,-6.05615133225697e-07
2.389,-0.0031939110505450944,-5.891278672504689e-07
2.39,-0.0031939110505450944,-5.725757420067471e-07
2.391,-0.012775644202180378,-5.561210620082637e-07
2.392,0.0,-5.396819254637758e-07
2.393,0.01596955525272547,-5.232156707154577e-07
2.394,0.0031939110505450944,-5.06746081218864e-07
2.395,-0.006387822101090189,-4.90246398965539e-07
2.396,-0.009581733151635281,-4.737327895468749e-07
2.397,-0.025551288404360755,-4.57305570045663e-07
2.398,-0.03193911050545094,-4.4090114674513744e-07
2.399,-0.03193911050545094,-4.243606938628158e-07
2.4,-0.03193911050545094,-4.0784509726681886e-07
2.401,-0.035133021555996034,-3.913048294941732e-07
2.402,0.006387822101090189,-3.748583054595622e-07
2.403,0.0031939110505450944,-3.589201976221086e-07
2.404,0.006387822101090189,-3.432323797458127e-07
2.405,-0.006387822101090189,-3.2758232605840434e-07
2.406,0.0031939110505450944,-3.120345648804909e-07
2.407,0.0,-2.9663204101603764e-07
2.408,0.0,-2.812682241310201e-07
2.409,-0.0031939110505450944,-2.660246635879259e-07
2.41,-0.025551288404360755,-2.5076491102919053e-07
2.411,0.0031939110505450944,-2.350652970341015e-07
2.412,0.0031939110505450944,-2.1918214674619781e-07
2.413,-0.025551288404360755,-2.0333560255203988e-07
2.414,-0.05110257680872151,-1.8744588356713427e-07
2.415,-0.05429648785926659,-1.7145838135224676e-07
2.416,-0.04471475470763132,-1.5549147203397096e-07
2.417,-0.038326932606541124,-1.393955369875408e-07
2.418,-0.025551288404360755,-1.2336719771139642e-07
2.419,-0.025551288404360755,-1.0795000289483916e-07
2.42,-0.01596955525272547,-9.275975902430972e-08
2.421,0.0,-7.772818405646737e-08
2.422,0.02235737735381566,-6.274680855663419e-08
2.423,0.01596955525272547,-4.738436953181237e-08
2.424,0.0031939110505450944,-3.1916396478321146e-08
2.425,0.0031939110505450944,-1.6348328070195907e-08
2.426,-0.0031939110505450944,-7.401666933600113e-10
2.427,-0.01596955525272547,1.4457712918586076e-08
2.428,-0.02235737735381566,2.954245644000563e-08
2.429,-0.009581733151635281,4.496951535375019e-08
2.43,-0.01596955525272547,6.053232722780534e-08
2.431,-0.01596955525272547,7.583040083160099e-08
2.432,-0.04471475470763132,9.136079565631814e-08
2.433,-0.06387822101090188,1.0688144997346363e-07
2.434,-0.04152084365708622,1.2286782918920776e-07
2.435,-0.012775644202180378,1.408060055531635e-07
2.436,-0.0031939110505450944,1.597512474794838e-07
2.437,0.0,1.791702806632005e-07
